emg_rms,steps,Label
0.47253162608163446,8312.892530891619,0
0.4239535913607354,8942.480219677198,0
0.49087361136826346,7022.325888801291,0
0.6067197075186473,6865.703336732228,0
0.47447180378614295,5648.10901761728,0
0.3957446180194337,6007.980107577769,0
0.6479541014614757,12294.62756060598,0
0.49547659002141536,9228.22594854079,0
0.3691474729066294,5094.4778446148475,0
0.536999789092325,5370.774082254684,0
0.44053568583905844,8123.783272004537,0
0.43748342211348046,8787.38601438468,0
0.42156433082787775,8600.773616689068,0
0.2400339364113382,7461.822494659126,0
0.3104277604288296,7557.810702699685,0
0.3954329206984585,8275.69238772363,0
0.30576917411865906,7422.4148714659,0
0.49975745082454504,4111.468794272652,0
0.3306053020882201,6858.325960230145,0
0.3805506238021593,6159.74393944842,0
0.6583585353888858,7968.0486256431905,0
0.4515862670055691,12018.263489348788,0
0.5111930886595834,8444.666743899545,0
0.3101168353835896,6687.280733073237,0
0.42617922732248237,9032.77375817535,0
0.5202010707830695,7849.540990253024,0
0.3447205895295422,8158.394676429854,0
0.4773623149739959,8632.37591659045,0
0.3217512526810349,10520.464577197046,0
0.4175052839918125,5969.005328237213,0
0.42276626615955276,7922.528414767301,0
0.673053155553599,5611.321311568778,0
0.468824880154943,8500.377856259713,0
0.32257694330592035,6645.173302993579,0
0.4531816284524153,6575.136297541406,0
0.30810703108270837,7424.023382675179,0
0.45871256465831745,8976.752101661987,0
0.24151582892442186,8476.974209405698,0
0.34192364938927394,5291.972344924775,0
0.549113180027506,7587.136598507968,0
0.5287878260731849,6314.29153149901,0
0.4584675565527386,5218.368740959526,0
0.42806629924101225,6666.262639995823,0
0.4248650211173797,6783.260018938318,0
0.2690160505493213,11198.21743201762,0
0.38282352151037136,8147.5195122601035,0
0.42196861635729327,5283.202361618621,0
0.5640996651648711,6713.405152031031,0
0.5026635063170374,9344.082959102905,0
0.291045888837668,10750.902112435133,0
0.4115325296496218,5084.632430226188,0
0.43696657829418445,4958.535024289639,0
0.35546720614290594,10018.492672392784,0
0.46733406236392855,8016.94540418975,0
0.5089218791353952,6137.23452150534,0
0.560469676330521,7930.8576516508,0
0.35717525058874205,3420.416142789376,0
0.35180001105546216,6882.575355627151,0
0.5022478557480478,8565.385173563514,0
0.48997018748028276,8605.18107277585,0
0.4076754305561994,6454.990310987587,0
0.44097405936054046,7639.956093820886,0
0.37478958586719896,6281.322300557406,0
0.401646729050607,7736.435694006196,0
0.47666552920339816,6219.359424043966,0
0.5835250486145603,7082.9956332562,0
0.4317455760401979,6205.642632132911,0
0.5677032772276409,8709.136379757792,0
0.4947903533421082,8677.176861973245,0
0.3713861748300228,7003.961243316473,0
0.46850347300640716,7079.104094859762,0
0.559145622439235,5484.078581402765,0
0.48593185938526523,7375.198641386852,0
0.6248325328453818,7909.487578412762,0
0.22473621750283104,11522.741426919116,0
0.5197744049785019,5602.105529466184,0
0.4324312880760399,9187.13701514182,0
0.37696666228824416,9307.788180123716,0
0.47353278100317664,7382.071636701944,0
0.20965137955878133,10035.74950296957,0
0.5019793339749108,7990.8661605272,0
0.433405553907437,8062.902252146588,0
0.6087358092426517,7431.059800484434,0
0.46084716646118673,9376.797590538214,0
0.3931142300812336,8420.094872092766,0
0.40685124414121754,6565.880841716719,0
0.5028008658917316,4852.256535868286,0
0.4276043434232603,7415.194465833813,0
0.42782598397999955,6133.404606662446,0
0.5615726329423335,6757.602120509962,0
0.4421537553156772,9111.895798810596,0
0.5013020387486349,6643.024915614419,0
0.281467913390304,7792.974813299139,0
0.3780031915937217,7646.025424737667,0
0.40624291098682264,8875.9798066131,0
0.36761343482025755,4484.032489289273,0
0.5065373753957764,6561.106271474708,0
0.4883089434062591,8043.18192672893,0
0.4345065592122009,9505.27676881989,0
0.40321465797224704,6376.205480669869,0
0.36468882969527716,5127.066014226138,0
0.4159650093537997,8003.476634927996,0
0.3316245206704822,6822.1664116049105,0
0.3428306871619484,5260.378100292768,0
0.39954278756253403,6743.852951875666,0
0.46855452531435526,7781.786426961277,0
0.6611350165324564,6528.989406227617,0
0.4631599860114139,4114.744221495452,0
0.47268042279212996,9028.731295125752,0
0.49509433487639276,9313.49362512932,0
0.2302644348786283,9022.766598132106,0
0.5219165934905723,5851.129169200383,0
0.4291707173392592,7101.711846612506,0
0.6998921391130315,7328.132368787108,0
0.4195157597057771,8118.307043290959,0
0.4850914995733997,8314.184237049874,0
0.46431250283240083,6293.537283734678,0
0.3504856058416019,7476.701612570767,0
0.5341575882266788,7988.468024681731,0
0.4802767161707746,10313.385852325882,0
0.6292300663405331,8247.731286790238,0
0.339701880936504,8727.57480735713,0
0.6182479286404894,7803.496244822303,0
0.24550924129984406,9804.721116480376,0
0.4975012005838399,8097.062071204505,0
0.6639575872217002,6136.157363185452,0
0.3698589702840445,9740.519202559639,0
0.2844720614000452,8626.811403802003,0
0.46661076103189736,6757.746317877023,0
0.35366277637366433,6312.1969773838055,0
0.3079074853411837,7804.486201011168,0
0.4154031296070762,7850.812143789139,0
0.30955032079036626,7595.790533426912,0
0.4864141386477875,7976.929981719415,0
0.31596439779249186,10157.556905063557,0
0.5859720626323398,9641.450553740051,0
0.32393964002464365,7624.731473226393,0
0.34446703031148335,9144.353561733771,0
0.5720700038341414,6043.002152040041,0
0.2750716206436473,8485.68987611215,0
0.4655987579560936,10386.828140478352,0
0.6108299186879942,6870.386728725544,0
0.2646539124432355,5711.6352982840035,0
0.43545674986340893,6615.245177010661,0
0.4850378029715392,5707.0151446163,0
0.5728996400868172,6028.763014023266,0
0.27953231830873304,6563.964540755033,0
0.31194842541087486,5439.942120508183,0
0.43289437276299664,7975.739810718414,0
0.463970427176031,8730.814056968158,0
0.47641747241611065,6315.4468231022165,0
0.45045983527949496,9748.245980397376,0
0.3637178544891416,7879.373506060375,0
0.41689629898380237,9266.31428148921,0
0.4823903917851279,6184.840556013583,0
0.42079262815268925,8788.275829777993,0
0.5926916963236571,5759.643024905439,0
0.47247642142908347,9103.29448162447,0
0.3509715001379024,7440.313711949091,0
0.5641389896362924,8447.137802317764,0
0.2928042404889106,5484.668869358113,0
0.5219570708776072,6004.063672886457,0
0.5771847907935214,7305.282259118046,0
0.36384951253967507,6705.107565149071,0
0.4472659302493487,8359.976517996554,0
0.5113216930660007,5219.089044528182,0
0.5929794700430748,8434.864612500105,0
0.6443457683121748,5502.520401983435,0
0.38421694626794245,8543.513766965121,0
0.35410129370967974,7870.820922793524,0
0.43184507974367137,6412.3669465673365,0
0.4048174731378785,8904.232412365893,0
0.46789089379396276,7550.479494209993,0
0.4983717008230395,6715.8527273399895,0
0.451223595445363,6648.160918463014,0
0.5246954776773717,4745.706951398363,0
0.44818327976065003,8062.252217095177,0
0.6173363803583094,5304.786779429618,0
0.4838910724468805,7522.756698659052,0
0.766750442130687,7494.717061467658,0
0.45579136054465896,8398.91515628723,0
0.3732440431144137,6459.177268144411,0
0.37238128400060466,6888.437389297225,0
0.523001654730104,8307.785697469433,0
0.40248437093191813,7918.228839966948,0
0.6379644180399437,7896.508718049979,0
0.44624037996410976,8563.128344654262,0
0.39938957086767074,5405.229633188657,0
0.3746644314436226,8714.162666253093,0
0.3831873997299677,8417.819567620625,0
0.37190071076513104,5657.317904477856,0
0.5250067448064676,6479.526718188995,0
0.5145011213336481,7474.9870719763885,0
0.32471163593329183,7536.647184469499,0
0.4539339384039064,7968.2897848794255,0
0.5111570540483525,9486.593875910765,0
0.3725149759890704,9262.000741073507,0
0.5065900620200244,5506.671549665586,0
0.5074796274072145,8938.82824305126,0
0.34798309261715216,9863.218481923599,0
0.4974480450499607,8368.065198140803,0
0.5146428919282688,9363.790872041922,0
0.5778703465834991,10131.355444215711,0
0.5575870307183488,9234.462429776253,0
0.3122087239113993,7986.860680756566,0
0.40408258084157744,9249.56012964448,0
0.5621481739350677,7865.114595689252,0
0.441076477305884,7671.683341281852,0
0.5019056147002275,7783.138587294279,0
0.8077253717276627,9822.264337262586,0
0.4946501924098738,6553.258215335797,0
0.5796572124074727,9657.254643937971,0
0.572177711211019,8486.988660776859,0
0.510654067386126,5682.836704866824,0
0.34193946214705334,8160.801762627737,0
0.48729509882627964,4850.7343212355145,0
0.40857746535424944,8172.9792143384275,0
0.3167010824446018,8681.68094198302,0
0.44896073128436964,6675.180092328967,0
0.4790366135644139,7949.56359997864,0
0.7341128999285517,10485.065007013909,0
0.25533071326558676,7127.107654560265,0
0.4361698020765351,5713.131658125203,0
0.30594291854129474,9380.321556847332,0
0.4537929383825903,10536.319286757142,0
0.5958839319172734,7482.389424937663,0
0.42992034257002487,9180.05366922,0
0.3456959652255752,9503.99318603637,0
0.3571561783228062,6284.267714005387,0
0.4851891163258927,6749.559975431081,0
0.41517887967548034,9354.966438170059,0
0.423744566507591,9936.027028108265,0
0.4188045267671169,8283.381676364505,0
0.3406789399005229,6059.200468650845,0
0.6047845080005708,10737.591203509983,0
0.5192484739055052,6761.749954633793,0
0.29394586327351835,7674.319069893452,0
0.46125036122713214,8061.718117117971,0
0.32359144150059455,9665.983389973564,0
0.5688411150693035,9582.166577287255,0
0.43817599631812876,8246.386163857165,0
0.41267666288744637,8491.970231245004,0
0.481356557229337,7742.9028979259465,0
0.557201944620348,8524.112580567084,0
0.3948453092058244,3866.356098864288,0
0.39575651058689615,6724.463441962483,0
0.3492074776439762,7972.241616643595,0
0.40992382099352503,5376.0204834156675,0
0.6585081469538017,8027.17612579358,0
0.49074342911350466,6975.607931551832,0
0.30158627418019746,10240.454603227852,0
0.5815613439451595,9959.767462023754,0
0.6833370598831819,6945.635413552312,0
0.522509105378975,7359.932404474683,0
0.3000267926568255,7207.031049051492,0
0.347508291432389,6744.209738955063,0
0.6041267331761792,8068.656324418535,0
0.3687437106628077,6682.933899856935,0
0.47695350951923343,5460.042068005746,0
0.5261484259368363,7974.788546096609,0
0.35891926081540165,8226.227561371303,0
0.4798446668564424,6607.088635119687,0
0.1495168872461016,9207.49835519881,0
0.3413048647148589,6275.219842131652,0
0.45528991084944376,7971.940663177874,0
0.3412511719511796,9280.84541886071,0
0.596177144941722,7574.174596116531,0
0.3019971358744773,8608.56235378163,0
0.4000666357765768,7024.973505193572,0
0.4832845114555772,6932.2405129894805,0
0.579446424317746,7134.216426630366,0
0.2907974174251907,6390.558823677196,0
0.6450666675928542,7266.0787717327285,0
0.4886127253718429,5451.971237735951,0
0.32142510831819937,6885.874807969466,0
0.519047987184015,6191.826476812059,0
0.47463997218355414,6721.878289329113,0
0.4056403592945243,6481.539556701018,0
0.4624738614816061,7459.963272406407,0
0.4590543461332335,8291.308571969425,0
0.4751765483111826,8896.743098781999,0
0.5137295195235332,6237.673679413215,0
0.6502893046938559,5897.441918452279,0
0.33554985176082996,6151.812130575904,0
0.668162480638789,6392.650898046062,0
0.2673521241471944,6532.306562840575,0
0.43107712956178706,6344.966394835733,0
0.5092008003682764,6093.359685709166,0
0.45463140322302836,7325.74158144831,0
0.3576833592329855,7941.1612383053725,0
0.38924495950497495,8173.5451972793235,0
0.3450205750622337,6929.918218184093,0
0.3558748298501966,6744.775987342136,0
0.5279895283234254,5879.70042572689,0
0.4898262518943302,6809.651194951237,0
0.36985717794802897,6258.0717082180745,0
0.44573184793823073,8170.731515120587,0
0.5437134063981547,4850.129375957385,0
0.5747454167995113,6270.748182450188,0
0.5307932782410464,8002.60901056272,0
0.4434001258099235,7046.415425292269,0
0.3548873312809546,11865.93257195131,0
0.6002343653373664,8181.267407092387,0
0.47242846347332457,5910.318673309608,0
0.4574593576152394,7525.619587391015,0
0.41077924532551,4542.208221001257,0
0.5783542534006172,7400.813030739326,0
0.4062895210363526,6488.848126036963,0
0.4985221248716216,7944.798638612826,0
0.4583358325202161,6541.5222802034405,0
0.4321924576567683,7318.057887266218,0
0.5389810960636187,6487.775152569665,0
0.5098691021867094,10545.407575648218,0
0.5637875145046917,6680.9655133462675,0
0.5543981995231543,10062.487792185233,0
0.4887165029826734,8146.466935284866,0
0.5671037688427737,8676.186086385023,0
0.3522247698468092,7979.21267819364,0
0.5277336907408856,7959.173280913365,0
0.5194026025010196,4592.746326288371,0
0.469779746947349,7272.545657302962,0
0.5334790699554843,8871.94597783132,0
0.4096581446514191,8221.019488855967,0
0.6482194349613852,5528.39599631577,0
0.3566894707915446,7281.819695383071,0
0.2760131575363024,9887.751253126053,0
0.5713564884912249,9252.509887577036,0
0.5490907492220753,6956.442908562001,0
0.5330585026222743,8939.133177834605,0
0.5554515398703312,7185.279901310598,0
0.4177832355898874,4760.183539572951,0
0.338970292584477,5871.087000920435,0
0.5334007496590268,10299.116696650568,0
0.37627069389824047,6661.065430269694,0
0.5555133248342683,6514.578517994282,0
0.4326138601807773,6704.372122493464,0
0.33458304726854793,9894.075069222223,0
0.4828025842703729,10054.80619227447,0
0.4701850889507382,10719.959000037328,0
0.34853612377132537,7195.526070892772,0
0.3497483493512468,8289.316986213074,0
0.3943004810801699,5017.63571751998,0
0.44844515851154504,9947.928462701104,0
0.3605805385487939,6201.727512859058,0
0.42759331467526074,7688.464596239845,0
0.44626842415336876,6075.153065217627,0
0.3407037232734216,6544.154386133262,0
0.3651929822851173,6521.335792077687,0
0.4094025913262604,6116.740352713391,0
0.4200397532744122,6197.662271738928,0
0.4867353364280242,6560.216493140122,0
0.5365362240891929,8483.323424952529,0
0.5304147874193524,5687.693077577254,0
0.39958860828098397,7764.954165786658,0
0.47587143445570307,9542.942788009213,0
0.452657159105998,6607.907279660126,0
0.4681415518397134,6175.963270691671,0
0.3414885301497995,7048.7590492019535,0
0.467822648317234,9038.84422859908,0
0.3721765426597459,7510.959795811222,0
0.5054289484345278,6219.273514015512,0
0.5740413662759076,8246.658411648383,0
0.4489356548597917,5675.950063266249,0
0.44047113873311866,8811.922887434823,0
0.48121805026370856,7678.692133934969,0
0.4357098584755648,6875.66222677731,0
0.43178271894584863,6785.993468526778,0
0.4727877042978698,5888.095761445459,0
0.40498905886864084,8231.266028890028,0
0.4432920569661228,8978.717558885983,0
0.4214802205297321,6139.510125622513,0
0.49085316625240727,8651.77335025353,0
0.6083388912231205,4420.771319888041,0
0.523313084508477,6663.1770554854875,0
0.6710544841940079,6944.516730158781,0
0.3962795126920001,6243.097290959741,0
0.5756565929722072,6442.467021613754,0
0.49999409801275346,6843.1737835452295,0
0.6621078747696603,8138.789061371408,0
0.3633049005027407,6880.160799111816,0
0.4599921581029237,4236.59017517044,0
0.42805629818556945,4519.2252591903825,0
0.20073748131621078,6051.369157687566,0
0.401424024382546,7850.146001635792,0
0.3606810082935025,3645.1899324351807,0
0.4596260092906964,7013.218468774133,0
0.4349957912693924,6246.0533051374505,0
0.6211401545461506,9821.013105093423,0
0.6175046147463615,6951.05830217679,0
0.41547268646877983,8308.786163493538,0
0.2605120765391058,7521.529313101013,0
0.5478608568505685,4497.7053292334695,0
0.36156186021430226,8905.459457293293,0
0.6187744644131787,7717.694277547718,0
0.5966345538234573,8267.72872336387,0
0.3687064663568415,13194.800070803094,0
0.25987631844025794,4869.322275357881,0
0.6453290918433354,10050.963392843934,0
0.4276768138799499,6792.221423346313,0
0.49899236471914654,7716.245582442089,0
0.2880251052093098,7469.762812390771,0
0.3869189619880484,7089.644851436398,0
0.4984591127467567,6244.502554096705,0
0.45527151626350465,8548.561104242248,0
0.38813016039446396,5316.842043209166,0
0.5540872390439981,8765.805543173472,0
0.34806956636178493,6846.551529525088,0
0.405761144235242,5810.673681644801,0
0.5082294655928545,6780.495771628058,0
0.5091903539865469,9691.062616004647,0
0.5212785264760665,6694.618793239654,0
0.3446521264726793,8267.795492862244,0
0.25376184806977387,6273.411329421018,0
0.5566615311427174,8695.574933379125,0
0.48337470527127047,8287.08550491348,0
0.36736479854335746,10637.871719709477,0
0.6560123328649161,6986.529909535442,0
0.47026369753836605,8405.488373858461,0
0.6021258753118387,7552.613185571993,0
0.45712766232404484,9337.62225649239,0
0.6983263318380436,6638.500149419785,0
0.6414351945072466,8522.510639894928,0
0.4256404045676311,7626.1314149873,0
0.5466257715370747,7158.175208498203,0
0.4763600499068763,7688.441967655372,0
0.6071397845586873,7645.624797846236,0
0.3518994645605344,7451.948270076502,0
0.4985254675925958,7817.284856662759,0
0.6001009195174417,9820.658472933732,0
0.22411741032189653,9334.717018373885,0
0.3147743129161251,8607.429327428812,0
0.2871855321751713,6992.645258249594,0
0.43568023419235435,5935.450783855075,0
0.519839868473486,8966.756397404743,0
0.6102758469356087,8455.397590327657,0
0.4645860448839312,9510.250869734451,0
0.5521950527056924,6569.386147374296,0
0.29801937876459245,7700.0717671564025,0
0.34432262224503446,5071.014917349781,0
0.41807226471925146,7407.693835668702,0
0.4756745043297574,9060.952753376447,0
0.4250656946582232,6684.131657815221,0
0.23977518106328682,8922.526649581445,0
0.41776308279574925,7345.350627625308,0
0.3390227100358371,7793.269064167527,0
0.5248597913746146,5919.634353096589,0
0.5176017292139655,7540.0357494785685,0
0.3139743747197061,2416.585784797526,0
0.38499968895101455,7500.447710536708,0
0.33504974254661946,5382.770351119869,0
0.46195796667622663,9860.374383817907,0
0.5137853841618425,8792.754136805346,0
0.3880535475367794,8125.389445724362,0
0.5478612751724888,10032.006168952646,0
0.35741934425733257,6331.571328358416,0
0.351077800978023,10612.529151814264,0
0.4180197036728605,8884.899059470645,0
0.45177121594516256,7095.4933774013025,0
0.37743906525696636,8988.766894846858,0
0.39731722842736056,6001.79835740011,0
0.5958072334873745,5798.7502572392395,0
0.4139403165505983,6819.941626999219,0
0.3525632679268134,6882.8839744637135,0
0.43757041861556134,6090.684596597133,0
0.4280512456645771,9376.092171593538,0
0.3995519119378178,7571.611873704578,0
0.4786430062949596,8290.355492163379,0
0.5720896508636637,6462.349792966769,0
0.44590163013947387,4592.34133426793,0
0.43039003587054464,7641.183893562742,0
0.4434547885082087,4797.002536703011,0
0.22351760615762362,7097.00725449981,0
0.2785996661535084,5772.54508482579,0
0.5485611265542488,10877.805991349875,0
0.6290165994874358,8603.339202576946,0
0.37815118034249023,7602.966126529364,0
0.4678988591385609,9400.546310890726,0
0.527241545702546,6495.720981942296,0
0.8339140425144072,8798.022080688103,0
0.5776892966701169,7294.067932717498,0
0.4814665269437091,7800.5759067425,0
0.3446120232421981,9328.725241492048,0
0.2358484005307354,8178.5371977037385,0
0.4948332283314657,7787.552488446316,0
0.39713649840237225,5145.999528962739,0
0.31064137119544233,5976.326886228938,0
0.3756476932515429,6852.55024902419,0
0.38033362278180444,8502.283370817951,0
0.5792848421701575,5884.547772550369,0
0.5072127525393187,11151.023252399635,0
0.4088784755979211,9445.213173960245,0
0.6013933323944356,8481.389329180109,0
0.41422111028039155,7558.791156713169,0
0.33650189264656394,6615.129521333651,0
0.5740821852378778,5751.045677962322,0
0.49346667107510755,7854.698583080478,0
0.28678040671119526,8469.834105214259,0
0.4344543318731299,5747.508758290477,0
0.4123303206881114,8332.189609355355,0
0.31713968179623686,7220.384834187914,0
0.604270600545217,4612.324814979733,0
0.6943015914820901,6536.716192116587,0
0.3412526445080001,7378.424886621375,0
0.5092843573745325,10721.860494049974,0
0.3858357586176349,8014.920764185191,0
0.43183945251806083,5476.68997925559,0
0.37509378319595177,8312.311839469345,0
0.2883000929733198,5101.140627540193,0
0.4745323249586011,9240.393843855289,0
0.3216622431614974,7039.486065773866,0
0.43856003345036854,7660.388642477786,0
0.4449851469749178,9994.456016979742,0
0.4223002002112203,5470.422315706175,0
0.30276060954321504,4995.112772878719,0
0.39894252950849235,6732.071388685329,0
0.5641847090170176,9622.711585884415,0
0.4549580559518068,5077.88812879852,0
0.4031438087540953,3457.820695953262,0
0.39752639753772484,7031.985450128295,0
0.609831678112017,8385.043814069762,0
0.2666090546685235,9302.470040921358,0
0.5101606991110692,6528.2291951554835,0
0.30805628120598855,6198.361467599823,0
0.5045744242005435,8897.295889384413,0
0.382813371454476,4578.296205723359,0
0.26606530576956827,7246.445643452298,0
0.2647225131295888,7754.697416182174,0
0.4169459139250256,8018.120366252107,0
0.5211933149536406,6467.994327627646,0
0.3608006228894771,7748.703266111606,0
0.5754893409384082,4175.016119809698,0
0.2627886995813071,6831.658098059465,0
0.42600023240037965,8362.107978759243,0
0.36152214980760083,5583.875124703099,0
0.3198973907396415,7482.974059531265,0
0.4062013327255245,8754.50001987095,0
0.4078580623257313,7322.76134628792,0
0.3646670884080897,7294.444691024439,0
0.47786724030934213,6039.223995113301,0
0.46705190057060875,7299.012610254242,0
0.477816505291546,8186.676715475967,0
0.34439409046736497,7042.698235029997,0
0.5057438255004991,6649.850309159026,0
0.4817317294010667,7599.997129150058,0
0.19214286906055872,8336.762164229522,0
0.38824700443211674,4318.6839741545555,0
0.5218795879788084,9198.508323037402,0
0.46583628874784083,6992.893053749686,0
0.4716149347409135,7873.037930183746,0
0.4181016590121044,9229.807526577619,0
0.43108581602408713,4915.262443033475,0
0.3780135798042811,6529.150215969103,0
0.5148690711387315,6210.294332184096,0
0.4169576661223047,6237.522694183272,0
0.524143704923168,10378.160709858299,0
0.348229363025411,5897.039653077363,0
0.41220093121872275,6881.60889186692,0
0.3961072134551406,8153.303361040733,0
0.4853392712998045,4704.40572513665,0
0.4624458437259617,6861.070061292881,0
0.4614403910010304,7113.44786358678,0
0.6820041423265312,6965.24685975495,0
0.5386150043984137,7357.768348355679,0
0.411316890557908,5961.238635554192,0
0.6621201571918534,5805.74604485281,0
0.35153879286923007,8068.194559299245,0
0.2977528198997124,9877.692577846252,0
0.3754476315278585,7967.216274424713,0
0.2437398081121431,7299.212209678629,0
0.48002139229353363,8170.332822619794,0
0.37791743342341366,4906.167598078982,0
0.5967730649355654,10594.085546156208,0
0.4343534492056532,7903.197106075804,0
0.444573285713972,10145.605885588213,0
0.48841799407086184,6490.750876889559,0
0.24620902696886424,10399.223212180112,0
0.46610399917799444,8686.15655522097,0
0.5079123616824532,8410.83653159077,0
0.3176872652633483,7883.317712396607,0
0.5536305393631703,6944.6295312175425,0
0.4403042470270799,9286.810058146408,0
0.5205261281953191,7792.618176750573,0
0.49379149928946275,4582.56018048491,0
0.5883649225743591,5380.888675113501,0
0.434502677916994,6817.735371128356,0
0.4241309910951244,8289.850904923249,0
0.43710973468759623,7323.019052885135,0
0.37788166943718426,9503.873788801277,0
0.5489820937260383,4245.711231025344,0
0.34959071877562353,7273.438141763781,0
0.4459826138396624,4519.952178159754,0
0.3873970111791816,8572.798921994829,0
0.4946502552092204,7158.769838551672,0
0.5167795479432883,8517.595014967892,0
0.5671970109260037,6258.032549576589,0
0.4190028732993599,9973.878983055185,0
0.442994862800631,9183.909442309703,0
0.3875013259170388,7651.551209141888,0
0.417096675653999,7622.536611642405,0
0.5020839722116419,7916.920441201711,0
0.5732511113122615,6508.821248182378,0
0.33118163086211294,8550.928271231915,0
0.5027308888125057,10617.034651825137,0
0.5381269219130208,9537.79521819782,0
0.49866007286718034,6183.050102778358,0
0.5635302916070417,8003.918675473321,0
0.3911072439320298,5633.6671052567945,0
0.3211668058888362,8617.609688231998,0
0.3175135631024144,8184.650692991312,0
0.5727277387303188,4387.807020887493,0
0.5073038342187055,5542.056642371439,0
0.48932966624068924,7073.947115971312,0
0.5333222885031081,7419.047472918169,0
0.3102450006400896,5814.135955032605,0
0.7018464472651691,7851.443616043771,0
0.4746988773048847,8071.722246723705,0
0.4758856156853352,7092.500850368773,0
0.5120736360172443,6633.435151318507,0
0.5493562590986167,9831.163815123426,0
0.39680026308305133,9875.462758349377,0
0.35410734506342545,7015.139322148106,0
0.5150640650245174,6358.13162465645,0
0.6564914421254772,8203.132367960607,0
0.6386523658400883,6971.824616441151,0
0.6572476783919913,7232.799100991835,0
0.3874567673445925,9348.383834219516,0
0.4030343677153661,4543.9879463355455,0
0.408859638238937,9653.508948914465,0
0.4928079865405429,7029.994725696983,0
0.6318400509839346,7012.359252167612,0
0.32935130130271684,7708.7651463735,0
0.6071858472870263,7285.3648297570635,0
0.4209280592712162,4150.131402520488,0
0.34616824115488654,9730.811810531657,0
0.36121114799055143,7567.143603521586,0
0.23990564369458633,8381.725710894354,0
0.500591671851634,9530.595566485095,0
0.40970196468937353,5854.240218479458,0
0.30258821671962843,7953.321411454759,0
0.3193733462141591,6748.463023240377,0
0.4273661133176154,8829.57974793422,0
0.5928818871123808,4452.965147118308,0
0.4668122131194468,7187.661931329321,0
0.29135749436859076,6829.373840041794,0
0.3939167962607848,8288.009648996986,0
0.4317793337149704,8218.03578794577,0
0.2588534490475955,6167.836741543723,0
0.4579769360096235,6287.179909090518,0
0.41239232188418795,6605.075357859243,0
0.4585221822365937,6225.772778286598,0
0.6261191166556518,8770.877929802422,0
0.5720536279583004,7002.732896655677,0
0.40760789529429414,3290.8133756869065,0
0.272732023596193,7053.513360996958,0
0.6733133647448488,5909.069314540231,0
0.5141033818369591,5067.686689757407,0
0.5087529693405131,5222.565117657291,0
0.41212192452081575,7488.996514042627,0
0.49671874756476236,9508.102558477385,0
0.38842104741679884,7749.020638023761,0
0.4488064505917745,6848.290156438155,0
0.4051235397917302,7986.266668469545,0
0.48471033292306154,6876.256158046007,0
0.3270537889993219,6493.069143299884,0
0.4058209058092791,5992.339275733646,0
0.4603360602218095,5142.494142080912,0
0.4585794410895482,7123.324223451214,0
0.6369940107821829,7105.278374465258,0
0.18753440673968877,7713.3089393816035,0
0.5351174996284096,7334.242075337341,0
0.6057963665369428,5936.743623658388,0
0.24025479678297995,8483.36336132931,0
0.3808198424508594,5257.052616040888,0
0.37604982414211346,8079.528318745568,0
0.2501622538757226,5775.059891947197,0
0.35180668485838995,6209.305432131365,0
0.3830500972963923,5193.36699467094,0
0.6323402363305797,6460.222552669748,0
0.5223771310778246,8742.941137671796,0
0.609349747026619,8270.14023617741,0
0.48886814153538805,8736.56507310901,0
0.3409088338515882,8446.271118665913,0
0.390362758463002,6048.9934526236775,0
0.530102681146326,7717.93248735801,0
0.2646980842740254,6667.4052859608455,0
0.48729193318465264,9568.793273557085,0
0.36043763382040517,5518.737741360229,0
0.40213405037266947,8928.670739585867,0
0.5695530969656464,8937.409593138062,0
0.47420844276246293,10090.436375872432,0
0.393476025890266,7120.589530081617,0
0.6008019573037903,8149.053834965681,0
0.3846356495782222,10849.157804147011,0
0.5080507180036749,6740.295022394676,0
0.5366987199588341,5111.1643844238315,0
0.37596717443348315,4617.958628109573,0
0.5377322755812284,8527.732284934313,0
0.4108368941189518,4424.594315705801,0
0.5632513335682391,7293.691700065378,0
0.34813652150198904,7850.558478981597,0
0.3753984874521847,7873.211103467836,0
0.5794139354504618,8262.26166576097,0
0.3627063110590696,7548.848213338591,0
0.360041812533648,9440.229996284312,0
0.3178633732250442,5798.6357770683935,0
0.4823419751039322,6901.8200348289865,0
0.3232476571812218,5999.3759510009,0
0.5897260893728729,8549.118589524325,0
0.23450366407513012,8483.330380085921,0
0.5974619072117018,7769.528360917497,0
0.5180922187295833,9752.60508759958,0
0.5249691710862006,5895.771101109198,0
0.3382605579896749,10042.924195036869,0
0.41298495998681706,9587.88484356431,0
0.4364296328834597,8875.71653918265,0
0.4995935602485048,9925.431631346353,0
0.4632712290130407,5253.156976782369,0
0.49498762069842484,6451.574412624331,0
0.47340445466928743,6203.69249841437,0
0.4523612199765045,8809.703701471391,0
0.47305396789522275,6183.937093843511,0
0.19984776407141408,8815.484604175257,0
0.31622886375686066,9240.901981268033,0
0.52717789982425,8408.78629040915,0
0.492644816381304,7972.696157851806,0
0.40326214230356844,5763.4057000758485,0
0.43444128929710496,6641.012378850741,0
0.42563808032399975,8653.844274759836,0
0.30437231969370127,8435.401651247252,0
0.32782964382789737,7288.600770072734,0
0.4067714929396475,6019.952581919633,0
0.3656312140553213,4042.419451262077,0
0.47009991330477285,6081.308225735962,0
0.25821215437322437,10376.213721675475,0
0.5135390418855559,6051.25745010917,0
0.36795713094080695,8247.787665597067,0
0.5359354033812896,9141.079873373981,0
0.5082582774834798,5711.587472696775,0
0.6000506416522615,7796.845044745295,0
0.4932413198902406,8110.3487009021355,0
0.3047897906044608,7100.381128863053,0
0.32777946080792286,11832.807234429834,0
0.35446353081979737,5181.908824307008,0
0.43691992056732243,9174.99373846726,0
0.5688930989319071,6973.057903590607,0
0.3745068414094023,8939.102116995862,0
0.4614073349430716,8606.69393617526,0
0.3368064473190971,6681.662584422407,0
0.31306497368191305,8140.374387566151,0
0.302932343372004,4545.3800835160055,0
0.3706960798818943,8727.65148766733,0
0.3588149180114734,7990.9652907840855,0
0.2624728133222805,8611.456911521254,0
0.5103603265798629,9196.807040478137,0
0.3318304674945477,8014.983628682443,0
0.713098972540811,7464.133387160724,0
0.49353044242695204,6153.756495941848,0
0.4636160649419966,6727.69733977127,0
0.3804880643246764,9147.659188672123,0
0.48389926350973483,9922.50728734141,0
0.4298018750655704,7363.95554671722,0
0.47953907913251537,7479.322901773962,0
0.6932151632617564,6559.718468595223,0
0.5044303297030917,9152.471266543955,0
0.6271839740514382,8950.989294321456,0
0.4169981716951636,10542.064249157915,0
0.32575888012759213,6177.755608694338,0
0.69023786727227,6666.647737371378,0
0.41909363512010067,7820.690814747846,0
0.7115012013082104,8408.60645254033,0
0.5702737772148891,6799.00962810328,0
0.45688702951046467,6125.27373750415,0
0.5483869679127673,8580.97033935623,0
0.6012031729084935,8757.500574512007,0
0.5919459458510973,6517.4729918728735,0
0.30163971754608254,9165.089498769672,0
0.314397060654388,9768.990382304983,0
0.41294970044424384,7662.87943555615,0
0.45815448106533285,7326.8903780825,0
0.5150627131299301,8558.413090736316,0
0.4179076214469483,6073.509051139098,0
0.2512228591211907,7520.526215936676,0
0.4583732783552032,4150.141209822606,0
0.5433681567677484,8569.662088694933,0
0.5691926356260227,5374.9592760577825,0
0.5947407771065703,9669.239321775241,0
0.5756893069394559,6573.824321396551,0
0.4926853849963014,7347.817564368015,0
0.3733001305458968,6196.724435566115,0
0.26569508341309267,6721.9636373143085,0
0.4826112454383635,9985.57887921525,0
0.45088666924288384,3409.3850454343174,0
0.4793456783345224,8720.514622054035,0
0.33998193281368705,8193.893667141012,0
0.3760149534889137,5598.308499369837,0
0.544190490758637,5821.734874084708,0
0.36989410838855075,9920.239422807244,0
0.498834960965617,6151.240661791521,0
0.45458025349272546,5544.15846153514,0
0.5018879308349109,9648.806275916822,0
0.5211160669102355,7564.960170336051,0
0.4188972723142387,6226.574110198539,0
0.47121559367951565,8017.573764269904,0
0.4055284924544313,5733.475446289571,0
0.44377171002975213,8844.111764050562,0
0.39264913978303284,9397.208711560746,0
0.44920591917763064,8000.751072027901,0
0.40164910490988315,7860.492409645354,0
0.5499697523536041,10407.974876038985,0
0.3808597614202336,7509.951861144045,0
0.40278514340921884,5188.045711580067,0
0.4150790624823879,8698.328612614514,0
0.5906908776839029,10470.067346671682,0
0.4782525162422257,5857.033573249296,0
0.5347947981443419,7034.541125656931,0
0.28788043091522975,8312.1920962534,0
0.4805453973068079,8007.474013878831,0
0.5470460598087962,5528.524184612319,0
0.4580603223118962,9430.572447023489,0
0.6247625317670585,11202.963991240911,0
0.3586416782403114,7753.047715273626,0
0.5883665922204494,6380.079673840866,0
0.6169446514772456,5456.841417710752,0
0.4285994031027296,7472.37513633567,0
0.36083988640485026,9680.745966738636,0
0.5842060374767071,7745.12294380163,0
0.5930746415598183,7155.799354250087,0
0.40894964234872,6537.556220228812,0
0.38586968158860707,6439.236704878983,0
0.39800931120619,8659.650000561309,0
0.37298920746000824,8861.077265063135,0
0.3695174769705612,5611.028901135269,0
0.3271438892439025,9794.663024501384,0
0.36318689661713793,8007.575817461799,0
0.5123457093521517,9474.221517147194,0
0.4640148781236082,5898.045927414061,0
0.5774789843553122,5472.523265993383,0
0.32276474992106524,7855.743513065932,0
0.5264671806080753,8475.557118221439,0
0.40482120668038024,10001.0985534724,0
0.393867715100787,8574.44126206222,0
0.4725139453387812,6880.012649339386,0
0.30455498286931537,5759.916279306531,0
0.511903815356529,10688.726134386452,0
0.4513957293303907,6358.529214384072,0
0.4909586588370533,10201.032228860484,0
0.5297203854009778,6886.468930997817,0
0.7473302999886261,10356.748328811098,0
0.374941003849359,8848.221615626799,0
0.37166576407248186,7858.993152643643,0
0.3531087348105821,7270.839686780344,0
0.42216331887230407,6544.911397551624,0
0.3780729979284567,7809.523191781884,0
0.5534418574978435,7314.598399687485,0
0.5595038417934834,6326.100694897211,0
0.3621387142645969,7348.588593801668,0
0.3795667703493069,7447.824508949979,0
0.44452402500314997,4928.678420606538,0
0.43457244332342043,8758.65613680754,0
0.49193939602295433,6028.4796847010775,0
0.46430686431505824,6356.59926003632,0
0.2449464701746546,5415.423867505995,0
0.6042558826033115,4673.949285444987,0
0.6164549296019298,4864.064142123898,0
0.3867179069973027,6371.078048066046,0
0.4700981999408772,10236.50206696631,0
0.48569446090410007,6773.132173700944,0
0.4516593116328703,7793.393645464472,0
0.4874016308454203,8119.627377429261,0
0.6748257013131858,7853.703201737523,0
0.48425300889033207,7020.078224785906,0
0.3814469963761966,5830.467437872046,0
0.33961658698073804,9544.506476513716,0
0.4012965049392763,10270.789625415933,0
0.5034498792469212,5263.234912385628,0
0.5514721794427375,5596.637181704122,0
0.424927627668564,6995.896390633619,0
0.5117282369200324,6017.633037426054,0
0.3948087621473019,8104.667638712605,0
0.5334125999845518,6677.540545229967,0
0.6686619326422361,10531.467594069763,0
0.3677615148528726,9119.202771682692,0
0.38178737371075677,7605.885306062703,0
0.5641202002291048,9368.09601841124,0
0.5528161350093259,9011.117402812299,0
0.6779234108843448,6792.092385177702,0
0.47487989608588516,6868.385663556075,0
0.38028267097317475,7594.769068349296,0
0.5616983566698799,9126.072390756863,0
0.5867401154750366,8209.996823208065,0
0.5353628117944963,5442.662744725628,0
0.5196608701329285,6290.722939280415,0
0.5554753176848578,7581.673032308017,0
0.587912946366472,7000.288015570651,0
0.5747732312435231,10224.800317739726,0
0.5256231861365336,5239.615531911927,0
0.37286634995353474,8930.567498806096,0
0.43715999685031504,9489.894308215853,0
0.543570449579222,10658.931592755645,0
0.3533308315729998,6580.227571149363,0
0.4498068006961002,8405.087707659528,0
0.3893243737343407,8397.426953598637,0
0.39229791979755696,8119.250290437906,0
0.5997932053165259,7553.110097964247,0
0.4658093660455345,7739.846130232849,0
0.3864353505045742,3459.447541167361,0
0.28062118948014114,8932.702859576693,0
0.5380894137052088,7628.277382119909,0
0.492827540258676,7522.565200238006,0
0.6384478139250221,10525.38900920474,0
0.4162384694243769,6197.302043327615,0
0.48565893417352257,6804.4077831024415,0
0.4174842700895091,10196.91501464219,0
0.6297504672250626,6082.242214004487,0
0.40845871549700974,6735.1047875647655,0
0.477185033847042,7432.943391964432,0
0.5093728453439936,8284.044326218034,0
0.44757826758604485,7806.493358777241,0
0.3644102486997186,5385.07725860368,0
0.4579815373661402,6507.222712621572,0
0.622376387348985,6628.773735921605,0
0.2928814688403487,7219.032870358668,0
0.5309894881788827,8553.406886398745,0
0.3695990716630214,8483.727196707276,0
0.5709195195760298,5190.530857110008,0
0.2542128770662334,8947.438422694193,0
0.36325703860574193,7590.103618519139,0
0.46760480150493133,9601.407050207294,0
0.5647246040883176,8121.192981050128,0
0.4350682555978664,8969.337487876634,0
0.3781994116584093,7847.097633175101,0
0.7121469526414884,9506.8832435237,0
0.25855964253115715,8162.1551189509255,0
0.2342270250079353,7559.63124144705,0
0.5039152962814063,11108.183896126766,0
0.3569817556186654,9163.795625046652,0
0.3753498181050422,7982.827965942609,0
0.5049025642146703,5705.860867500585,0
0.3746844853137972,5349.2988619345915,0
0.4199861214105098,7572.948959969455,0
0.27729192476881603,7589.701125567748,0
0.4953347349824505,6899.427646527911,0
0.542536201111562,7599.778543346944,0
0.42619595432532376,10352.576790053126,0
0.6713745856268265,8707.767266481547,0
0.3913981671819975,5670.26009167672,0
0.27165034449463416,7680.751287957507,0
0.41253969285007674,6426.169310355444,0
0.41522296630873495,6638.682308853147,0
0.5636585816175563,7437.21729222969,0
0.3981581140331184,6861.375273019936,0
0.5262490372898299,5622.935799635555,0
0.3585976586162187,7051.85817675103,0
0.6070199732916833,7012.950025011356,0
0.4149631557040758,3261.00959320499,0
0.5556736834811563,10768.229490841066,0
0.39812901011998836,8980.895078267276,0
0.5046521234506685,7185.779084185527,0
0.5209613412643558,7801.772652682138,0
0.5001108327641864,5541.88500738932,0
0.3953400291350521,9618.487274812001,0
0.5322897952096507,10520.344959961345,0
0.43972847765620054,7263.036507488066,0
0.5325667330864131,9080.900699629352,0
0.4525999867969967,7628.756636964694,0
0.5872027698661001,5860.5114049227805,0
0.4077705912582313,6764.411779324351,0
0.5890443482789656,8030.073841759077,0
0.4703936051633255,6663.9155885759255,0
0.32591217398179084,7472.017385365329,0
0.47791263080459534,7981.003126887377,0
0.3746132170090857,7058.268111691936,0
0.6072941078921229,7665.998452265498,0
0.40446542960935605,6733.727125178118,0
0.36664822214837967,6444.452424378973,0
0.2709781459348863,5591.660082518941,0
0.4348687031580611,9203.273008734606,0
0.18408772338013193,4353.853846467939,0
0.3351806075286716,8718.217716604222,0
0.5413228138430702,9919.210308345946,0
0.43488088235846944,6445.84459536651,0
0.5045326352720135,3470.2568729175496,0
0.3370612195105701,7320.261881796059,0
0.4667160569674714,7296.761029473935,0
0.4874083397010157,5775.993722367308,0
0.34197001296641844,6990.951580837604,0
0.6669499195345029,9539.958362244712,0
0.5305879536750273,8130.723027575025,0
0.4528962955391886,6195.508024680835,0
0.484886286844947,5048.724256083075,0
0.46694444203904595,6636.372089328691,0
0.2769774854766822,7370.900592972804,0
0.40149534226145356,8383.645062718144,0
0.36489883843937143,6589.098426166822,0
0.29733845139705595,8179.849761205309,0
0.4315463353662064,10543.848882693092,0
0.642778719719126,9080.359959592015,0
0.5612548124698702,7343.029275971044,0
0.4245277011959557,7421.680841322501,0
0.49586645586971856,7134.550363855573,0
0.5428083561652292,9534.75355649091,0
0.5597773843920759,6570.822590696085,0
0.5003931638886031,7294.136409280067,0
0.41551372118160035,7438.047106861637,0
0.5632014323556506,6850.179750517196,0
0.4808729572942453,5986.8409916883265,0
0.5208545632757474,7839.255868467619,0
0.48404112607892497,7649.930275275145,0
0.5527194128673897,8151.943768951827,0
0.39333284700519044,6732.74016710709,0
0.5900065117049973,9785.850972998649,0
0.4645880621878196,6414.127102608362,0
0.6521809780734558,9695.670644204552,0
0.3500134560721575,4706.80272811413,0
0.6612611408585846,8529.021500167744,0
0.4728518008360132,8255.709436578483,0
0.3778804422671439,5962.012362203917,0
0.37171424646459966,7890.905173299403,0
0.3646887447649245,9630.32606145359,0
0.5447351623421655,4473.094825334192,0
0.5244690971288223,8259.473801680875,0
0.3276732859033434,4502.6879097857145,0
0.478090232802288,6298.74850375188,0
0.7011262826705107,9870.705226461547,0
0.6277293619021083,6382.615135482116,0
0.5575568027974735,5446.714761994828,0
0.46246913350173535,7303.7198026670885,0
0.4053301915538585,10455.226393771307,0
0.5259585573149745,5254.599755385989,0
0.35751663554866864,6362.928673416341,0
0.4001304723065393,9936.067489018607,0
0.306083946087338,9932.854663419528,0
0.42321570161289346,7143.187501798852,0
0.5543422670679857,6018.124203932366,0
0.3665564856258445,10474.845392775207,0
0.5680008313243221,10228.306107799654,0
0.3228704428074668,8660.801658553777,0
0.3208814291007634,6296.911842037826,0
0.4790021443997344,7215.606144862312,0
0.5250034636303204,7231.186725375328,0
0.5981491974981114,8053.171343385837,0
0.35878987981800753,9986.263826687342,0
0.5488808872779347,8553.404881515979,0
0.4891500016303657,5805.090831765028,0
0.432566752500163,9578.191614608992,0
0.5727425639390453,8168.501717325582,0
0.5734483413503897,8258.059392531542,0
0.2688400435400964,9304.84035105174,0
0.5901911048503751,6034.819171242689,0
0.674856849857245,6990.876897456295,0
0.4452174663282449,7088.312087389828,0
0.42268417231124683,5101.433032706945,0
0.5148889512707102,7555.805641725046,0
0.47608977627597854,11123.208761555587,0
0.4280276090498085,4853.620473162142,0
0.35303851250679263,7291.768757159301,0
0.4138602580192286,8466.823327259464,0
0.5402300733141921,7906.6408121958575,0
0.4814828736115059,7269.650820610103,0
0.44555153346375,5270.058151891424,0
0.4799218241388793,7759.484915198694,0
0.14024118193861967,6789.306075413889,0
0.49331607441715275,4720.636746132125,0
0.316313335058685,8685.910478587914,0
0.4645971098369324,9264.887102520506,0
0.32495007330283415,7652.535780087227,0
0.3086138778353805,8120.8068360446,0
0.5842115548291678,8946.330540993053,0
0.4622091601639411,7306.030432316678,0
0.5009948180756283,9031.37296873621,0
0.417406264413077,6771.4835203044095,0
0.4329511798428545,9051.487878415464,0
0.413077138599486,7585.658174156986,0
0.3246295555936416,7971.3520501334115,0
0.5234135810166822,5636.744106740711,0
0.4084230499234991,8165.173588014965,0
0.27222484948457554,6452.7902001072325,0
0.3648626266516323,6416.295840832129,0
0.5529947138053083,6255.794485362581,0
0.5975163545862785,5747.216343516401,0
0.45069429652655985,10624.058772665796,0
0.4842949476412755,9206.832171588285,0
0.43943453090846585,10497.696541378693,0
0.6404751420114906,5988.193695361181,0
0.5411271821227529,7361.896715920043,0
0.49168144466463626,5944.11945581426,0
0.5618620162147984,6490.514133147787,0
0.4721659407396306,6195.133217796882,0
0.3062196166465691,8849.547153780088,0
0.49455441558329627,6363.47678997764,0
0.46248003189690373,9145.80390937493,0
0.45947069878375624,8643.10097177238,0
0.5202919118728756,10754.0439950637,0
0.4617317013961752,5781.861835465341,0
0.499372850287708,9609.330651956492,0
0.4665915160814326,8947.158930088697,0
0.40557958525564375,6049.1863430755,0
0.25762266884561114,9753.778744826763,0
0.5640957062930924,7631.448243699431,0
0.47670208223688315,7317.26659174442,0
0.5646357226848062,6167.2734037249975,0
0.12072108649126105,6633.404710101775,0
0.6202043996422343,10954.900237574404,0
0.44550972202553835,7385.153101822813,0
0.5879602678585938,9008.868683809342,0
0.2710147810673784,6980.011945780258,0
0.5321582159106877,6350.1030018708125,0
0.32293038366758087,9358.44382012317,0
0.379910860438123,5298.503451611719,0
0.5878224184440772,6882.957140851457,0
0.396867070316197,7498.038588795875,0
0.5103883003391848,7906.139680457658,0
0.538321308028084,7592.762853202843,0
0.48425705272887815,8060.833216908647,0
0.46038235640911623,8999.370487446595,0
0.5060645732331945,9060.970550657485,0
0.707961338370361,6275.35040995223,0
0.44123704028076943,6918.959393590286,0
0.5138282691073635,9108.595647793436,0
0.5938839450770279,8598.256374953797,0
0.5770874744610143,5725.460643849853,0
0.5708875018724409,7663.689388281493,0
0.5401658660077,4735.713422171087,0
0.34827020559899896,7246.06954874332,0
0.6557751561023476,10593.71436107156,0
0.3713479157676635,6083.326798915689,0
0.4395333904671942,6648.607000320575,0
0.33113388816839595,8988.48104585567,0
0.4155361835645377,5616.317350786164,0
0.5219217886330249,6989.113070659176,0
0.4190833616741775,8437.750956569089,0
0.5079823709878483,6200.933308538514,0
0.6258728505495832,6830.288102684329,0
0.5418593524988456,7990.22400667777,0
0.43279788409749065,7807.219375276413,0
0.4926803412054797,7920.874691754498,0
0.5305728504665391,6823.420326847394,0
0.2799593976103878,8001.050991580478,0
0.48822224833166017,7462.215605688785,0
0.5128012115341328,8095.48883746895,0
0.3736259886151585,6418.053322199258,0
0.6463971609572535,7210.176438161659,0
0.3819831864186497,5745.516165140126,0
0.5164017823016535,7366.252635896927,0
0.48009933882918665,6686.3317938836335,0
0.4874900067457082,5747.778733528157,0
0.3126218270106098,8419.278987787406,0
0.31969294690764666,8248.600459867881,0
0.5583556609804726,8500.519009849146,0
0.4017401465695172,6519.974515712619,0
0.3479013737929186,8096.313021679075,0
0.21828818005616113,8672.19468742956,0
0.33715403136479905,8020.103439878786,0
0.21859077591408949,6533.946565275428,0
0.5726598817322067,8086.57722014761,0
0.5954936367587798,7814.00274897321,0
0.3650716283432355,7307.952373875337,0
0.668470426249829,4584.082122081475,0
0.5743987230306975,7786.288700852691,0
0.48974361677378836,10612.97810113276,0
0.25305961471046823,6854.2869624286495,0
0.6402008571064266,6386.728487398793,0
0.23333993046614415,7590.56651208046,0
0.37984469566831497,8198.260247644666,0
0.6430167076673422,9145.495091442865,0
0.7015133844910986,4778.082898997239,0
0.537607752027779,8589.909088369654,0
0.5449199733609935,8163.161714209143,0
0.5051560867260242,7793.426852279984,0
0.5308223109537664,7832.397470606544,0
0.5616712127028817,8714.893213323954,0
0.49149413227186955,8960.85287103128,0
0.41298751395458977,5587.336821487132,0
0.43075100980676884,8496.400419757558,0
0.4010496582597862,7555.817507298544,0
0.4423425812095233,7297.170954656403,0
0.2911849815548005,7172.613389042706,0
0.47750295549955957,7792.434917430912,0
0.3366722097722177,9461.41086694079,0
0.34678785928718575,7295.160274727873,0
0.33296625110824385,5819.637644514666,0
0.5712142208807475,7061.464523480254,0
0.5723877769432572,8060.04331009974,0
0.27733416095299657,9117.029589051072,0
0.33238809067428177,8514.485985212954,0
0.5024190007278289,6072.185829016363,0
0.39188589635533483,11171.09050166455,0
0.4494752159419204,7945.37082670644,0
0.5380217938153786,9411.08253508272,0
0.28411699603532087,7493.098419124927,0
0.45411954888397066,8446.164834792853,0
0.3053930101981793,8306.751993965954,0
0.37864036734093653,8919.945105511752,0
0.45733709166553543,8975.13745263955,0
0.27685645577563245,9356.883078842015,0
0.528033265104306,6771.892353458356,0
0.37152216597341875,6579.914124182083,0
0.5763407861629329,7838.00745739934,0
0.49174505840752464,8733.478793285181,0
0.5847207671709759,7219.3908720066065,0
0.49879581611970775,9517.991131430275,0
0.3489860560807373,9815.715638193446,0
0.4356417140971878,5884.459332961743,0
0.4994867856080167,7070.587797546542,0
0.5095084218498576,7313.009377930332,0
0.4521993058753259,7788.252715369161,0
0.3978030180667303,7136.7783917527,0
0.36012674840746006,9387.582832917571,0
0.3292131555787303,8634.97438877391,0
0.6920472580376722,7297.977735071109,0
0.36543474412783605,5775.144830873619,0
0.3774512407092941,5586.590574643248,0
0.40517890733369905,8308.829545233439,0
0.5625931158787326,4871.636273378209,0
0.44076853903868823,8679.173927309732,0
0.6192523417017898,7645.500779669016,0
0.4268300457291118,11941.968283064478,0
0.47281307234738484,10647.719069349698,0
0.39214045713313506,6986.8035581909935,0
0.6491911159309471,7491.585487056386,0
0.2943172622444256,9003.277034083503,0
0.47020232079454327,10004.618089628206,0
0.5103265620236265,5086.826997552684,0
0.42491667017803014,4997.823678756012,0
0.46588453648889805,6767.422228850834,0
0.32632491312256146,8702.356425445336,0
0.5629738247773638,8791.320829591627,0
0.4953749651890039,9098.248470743332,0
0.5359475627125985,5544.127018812763,0
0.6714293545816861,4209.845044302241,0
0.406369696442708,8443.744848073831,0
0.28945328652253455,6054.0943509186645,0
0.448876561068352,4772.08248733488,0
0.7022109346573654,7680.357106493761,0
0.3658616345137883,8327.305794820604,0
0.6211701230836323,6869.973382208532,0
0.5652289694734843,6827.8424245444085,0
0.39622396479454647,7603.525612871543,0
0.5134362177832266,7282.689589658182,0
0.6179936471670904,5511.193482957601,0
0.40345399568380513,7030.651810243191,0
0.47515627502853874,8250.473747738582,0
0.3776858064098736,7940.947525045527,0
0.35761736320364096,6981.8589360285305,0
0.4369641468504211,5873.068392471566,0
0.32443092772296184,7483.349767269047,0
0.4619868775246247,4703.59083139363,0
0.3691472914415399,7518.644605727899,0
0.5228733829216188,9781.962260508266,0
0.2841014529161855,5602.865511633828,0
0.534422206312974,6624.470935982137,0
0.5292093803750099,7308.676030807026,0
0.2162480468049338,9453.450951513501,0
0.5145805838077221,7056.092262768043,0
0.560580185897103,6177.397637595618,0
0.353855934094846,4470.368927113559,0
0.508081063286821,7308.508381323531,0
0.49211011141240235,9792.06979564151,0
0.3611146024738599,8224.13901648331,0
0.4018927447729783,7465.456971083875,0
0.48370305117858026,8462.425965161974,0
0.4346524133695351,7740.55865164895,0
0.5019561674506137,6174.215513110171,0
0.30323958224066516,8709.965675485235,0
0.47958703361399635,8008.495501898683,0
0.3632771417177335,7816.484902927208,0
0.450114533743043,6133.752148305229,0
0.39196878022268133,9786.939841488984,0
0.4202295039255752,8408.053496997323,0
0.6230688980084108,6371.475679913341,0
0.6339365597722791,8983.294504454567,0
0.4909457321596805,6815.199209643045,0
0.31202936412629745,5966.534142811658,0
0.4496977809635092,5959.428698535583,0
0.5996404187842144,4977.6130593098915,0
0.4951987033486181,8085.406515216181,0
0.7575042521681795,4703.530410793874,0
0.489786580291377,5549.426453391109,0
0.4862511740348506,4842.798256911164,0
0.3798728235204109,7749.42380893216,0
0.5487669354372665,6903.313202580442,0
0.42129121951358117,6850.11771629632,0
0.5084822305424259,6191.134738385013,0
0.5318002360391286,5922.230240976012,0
0.3456052196034316,8184.117406620926,0
0.2876992226903163,6332.892040947998,0
0.2454312913740893,7769.775468458154,0
0.44616729556921664,6017.096700549779,0
0.3082506225720831,7854.692413492354,0
0.3126694651626565,9966.035202383267,0
0.5182840661987512,8173.184630152736,0
0.7363361188123878,6573.568698408708,0
0.4964812603426873,7853.222512485508,0
0.6072144600196598,7448.5239323588985,0
0.38732603379700276,7077.755387013881,0
0.3909157100694241,7447.673667039729,0
0.5097587018629895,7201.887782537212,0
0.402183353721551,7597.84402891725,0
0.46471645578378035,5529.9051645984255,0
0.4642906785073597,6188.137991541221,0
0.3919633111609773,5365.834810680723,0
0.550616050583461,5150.804988070788,0
0.40359063252332916,5403.832439365872,0
0.28740353297121274,7643.464949930886,0
0.46393623614189244,6014.844352855753,0
0.33818365568839326,8240.243764733183,0
0.44293493826460406,7351.2049252161,0
0.40390140196315816,4086.9893916367523,0
0.5389572979233009,9301.013299921517,0
0.4522303277485718,8307.176694186312,0
0.4424645300635523,6063.643689830482,0
0.4888529767855241,7598.678965815275,0
0.5550645686469128,5616.138412900809,0
0.45343366539562063,7675.8535126781835,0
0.44489523416154675,5655.562665898042,0
0.28415846596688815,5188.79001843885,0
0.37976000435947993,7045.638267885259,0
0.43571154023224923,7269.463364964008,0
0.386254705056726,6618.600386358593,0
0.39940344980770387,6173.657783136226,0
0.4708858047023628,7178.806780618362,0
0.5305973110096185,7530.043285546573,0
0.4486576586821561,7444.049573279385,0
0.5627982386012974,7816.967215356769,0
0.47483293420400463,6391.13110233695,0
0.28899763206733425,9489.132017816279,0
0.3614090772395637,5985.2599366722825,0
0.46261782255811756,8174.194736288546,0
0.29715927640912226,9188.575865700644,0
0.49165693847110875,8671.049677923602,0
0.6170496253736649,7476.065327111426,0
0.585560164432027,6729.262546978047,0
0.44896018582470915,8565.368764845369,0
0.6430883293761444,5468.737643999001,0
0.40786789884759467,6254.238648905835,0
0.37731330098378424,6077.306863242906,0
0.39784263928887614,9432.041470763405,0
0.39077848607904875,7944.643858022624,0
0.5462930477974516,5981.675078195766,0
0.48767040700435427,6762.3241560936485,0
0.4629241641477802,6534.058496734466,0
0.4296858310919871,6852.913984504097,0
0.4744873256469132,8834.414788190514,0
0.5702702539312413,5732.057373742697,0
0.5494346908489827,9671.271917937678,0
0.2832422373672691,8969.971393073745,0
0.18368179664900847,9136.789262592132,0
0.5972033741333113,6911.198180598897,0
0.3686923286644993,7277.234898210582,0
0.4376048190081267,5542.7598479452945,0
0.27933830830459455,5942.730854019668,0
0.2913420825075598,7814.534677427457,0
0.5663175704849199,9569.218742074687,0
0.5807067601087598,5226.2032686274515,0
0.4217259940397147,6792.566987827938,0
0.24779268899694187,7256.748917340222,0
0.39751092607391264,5157.874155427403,0
0.5143045193336029,8179.55544182947,0
0.2748778204695799,6495.4891624321635,0
0.48002661022414406,7509.7029599684065,0
0.5016503848415214,6534.541127755741,0
0.48435221350063323,6143.474782564277,0
0.42750029966284386,7270.054229781055,0
0.35659266347279234,6450.171706584783,0
0.5605906620174892,6984.726713677254,0
0.46011295154011983,6687.722891228033,0
0.42913916501112515,8284.279968369197,0
0.42541078871678895,9719.195989806205,0
0.3540847309624068,7334.321434702649,0
0.4116691200460993,9000.6589866442,0
0.4021114248753336,5663.449218239746,0
0.5493315386308735,7783.09729343377,0
0.3223248919608191,5940.738912305529,0
0.27845954077177054,5627.161887023018,0
0.5527326580332397,6169.201921042234,0
0.3618125566162028,9221.85797561845,0
0.3827582946431501,9415.40539653283,0
0.5930239444045604,7805.463746152312,0
0.4128365857497714,4820.748070375133,0
0.6348692373082643,7004.7721940430065,0
0.5369464900626364,7671.09605798623,0
0.40012029389031545,7870.4531200782785,0
0.6085418516053356,4465.525523702248,0
0.3325927482907285,6245.833503828566,0
0.5160827960415435,7183.06378821473,0
0.47350312658600624,7667.422802756317,0
0.6142134360801504,4297.794204444656,0
0.6364432886236752,7301.353141244279,0
0.47740573553693466,7869.900499531081,0
0.36344690444229444,8572.521817024743,0
0.44077112748950603,8305.423033748342,0
0.39871130850743036,8494.29703575767,0
0.6723454972831491,6755.795111706393,0
0.3681122746091663,4641.347197166937,0
0.3800943174054826,7037.796393222043,0
0.440825855490735,8905.971432485127,0
0.3200213790919678,9127.09263472454,0
0.3207041788383071,8856.052479192895,0
0.568516008041457,8416.53550592845,0
0.37588917448874076,8282.691680131507,0
0.3389429228702969,6611.238248356104,0
0.4750095035046988,7484.026389591132,0
0.5430110133036327,10271.732827955846,0
0.47868464867527893,6572.210596799197,0
0.5648074662035348,10218.72601745901,0
0.39716459628670864,7036.104135772004,0
0.2769942153208021,9095.672187015307,0
0.6609589690362305,5436.474975055215,0
0.40514795821810445,8455.829520501766,0
0.48612412330635774,6607.553728674058,0
0.5571343272316417,5783.266769910746,0
0.4245598898760885,7799.255909999384,0
0.5116766902046548,9644.503839837887,0
0.676442038694868,5704.801736097582,0
0.38702392877428904,5377.278621050886,0
0.5170947136703642,7122.676735842359,0
0.4543184234702757,6796.680406927588,0
0.45640884957154465,8261.947128442001,0
0.5907528599879832,8487.240047520445,0
0.5344488658595654,7362.448858681414,0
0.511198297086167,10293.685746619733,0
0.5816487892242593,8171.914539603722,0
0.4042299867806799,6528.084700560469,0
0.35239833943390836,5355.182511039489,0
0.29937977936235094,7135.434854609687,0
0.23856287655967193,7304.074327966175,0
0.5227761307704667,8810.931841912869,0
0.3160702847756063,7794.052060071248,0
0.4245996705537892,5365.696519686314,0
0.4448656161819142,7370.839343516422,0
0.4699935546799118,8650.641003469776,0
0.5454806629437297,10235.12364574616,0
0.44885580238036465,8661.770493124523,0
0.38941878205482816,8830.01057094455,0
0.3661077169048227,7133.09637448206,0
0.4299258544224567,8136.564382888364,0
0.4176442654670908,9574.826135960375,0
0.6617851171169415,5066.396471197465,0
0.5139457657026275,6914.67596848061,0
0.5242170184904664,6555.922019011308,0
0.5155069112880573,7188.598483920344,0
0.5388022300203538,9745.969181986704,0
0.4463428193354633,6710.6423826857035,0
0.3374118470232472,4129.561743111046,0
0.43455437443748435,6757.853098704865,0
0.40858647263213793,8353.393853556503,0
0.38159804914027023,8466.663741319904,0
0.5416586848702919,8117.50227409091,0
0.612272045432647,7089.644683817977,0
0.38520379717337655,5907.735991230006,0
0.4576200707308076,8501.56064459548,0
0.5860003869458988,6824.948510074946,0
0.4015661993459311,10822.301368732733,0
0.6688669803696631,8148.397081194439,0
0.604201198373768,6572.502492096455,0
0.29830411993291583,6707.621140678639,0
0.6020256808546834,7665.340645777511,0
0.5212797760890112,6700.63693153576,0
0.5493015489679355,9177.811947848682,0
0.5020472872600341,8262.48675172758,0
0.4596918488112349,6330.489730336451,0
0.34507042450998493,10614.964584194404,0
0.40600399364306416,7721.897755445136,0
0.3045482277559017,8940.01769591084,0
0.5234581025150773,6344.732076352881,0
0.5032118535483487,7803.052940597111,0
0.6039608947078359,7972.746554351479,0
0.4940005315385102,4205.859525683677,0
0.32070255022404043,10441.990483707465,0
0.49936942313023347,9511.829688638521,0
0.6211410401092219,7439.59770786595,0
0.3840397703806049,5967.410846097163,0
0.39008986575959775,8208.910961967258,0
0.4450030676937753,7979.389303236596,0
0.35293409743537957,7744.1061461763275,0
0.57178400087426,7737.8412955798385,0
0.48474994772872465,8986.985261500058,0
0.4962542444079347,9647.221882372358,0
0.3101013480270198,8687.08403232763,0
0.35721847943006113,6214.638114787021,0
0.5228430662461593,9100.410164752371,0
0.4261696035636745,10054.06562833421,0
0.6077114723502983,12272.109343429694,0
0.3908295980702504,5913.7465864927335,0
0.4487565032480427,7638.089275788095,0
0.5423233247775511,4041.7760916428715,0
0.21285293262377425,8186.920734562558,0
0.22986605365113405,6648.361053624581,0
0.2723523347250965,10740.664026517525,0
0.624558538140795,6883.270790889809,0
0.36226163973359815,5385.204796916061,0
0.7130386542400734,7051.159952180774,0
0.402636950171501,4235.466264484417,0
0.5203717905461342,8503.980329264117,0
0.6547140915353535,4465.353246339419,0
0.6483091700641156,7352.954660351886,0
0.6371309680160621,4556.44396597409,0
0.5442832989462867,7235.699125671324,0
0.542763723682515,10125.954252476442,0
0.4918913607471744,8348.512218520968,0
0.549981203990993,5933.382228438677,0
0.41169382106655483,7733.043377819034,0
0.3918521593035699,7318.331673030611,0
0.5000339027163515,7926.664732972244,0
0.5074963026035142,5609.3472953346745,0
0.40966373080357477,8753.61297943069,0
0.5636172956014976,3589.81659850864,0
0.5314641135036825,6561.414378586048,0
0.5062409679725054,6860.635384153135,0
0.64021337439256,8490.918314527042,0
0.37616772738436915,7196.1610101746855,0
0.43439684771968917,5018.869375732095,0
0.35158344138008396,5998.862547432441,0
0.20756520077807494,7821.977065051901,0
0.44013044311488614,7384.798700713485,0
0.499145750851639,6834.144319641355,0
0.5889511782696503,6714.10630088273,0
0.54448623187388,8713.14575031039,0
0.38133937358783676,6680.085110498243,0
0.6240618077963319,7914.87082256733,0
0.6247571630533161,10779.119000138748,0
0.3918633405676414,6066.692828131819,0
0.37844157896548986,4827.839379965272,0
0.31743078447331363,8611.281346021446,0
0.3799907214781991,6212.201015180943,0
0.5723253800178544,6589.777136168761,0
0.6500601427156171,6030.832747484482,0
0.6200839757142191,6846.417896099535,0
0.4249583175866721,10016.253174268166,0
0.3000340739052729,8545.343076609124,0
0.4153615820188276,8849.413383596815,0
0.2890088507240294,5760.252925024037,0
0.4571074884726206,5746.92688968024,0
0.3724207395554143,3865.1290203119006,0
0.44225012119483503,5933.185474274109,0
0.3463337695334124,8889.87971506601,0
0.563646446244918,8113.625896539263,0
0.4042102248927977,7448.682087388916,0
0.35804560026788734,6794.612085313084,0
0.2175685076063115,6033.737099383548,0
0.421591877893999,7774.934276867387,0
0.6716522670291382,9114.23073552377,0
0.6271417708205153,5143.922369095483,0
0.4408388404350765,7544.007295476752,0
0.3972225147988594,8539.502328624932,0
0.5487276939974224,7379.246477408431,0
0.3591024065828324,8364.710478542003,0
0.4208200276032499,11439.092654973902,0
0.5846850931310579,7786.6975787089195,0
0.5347920927495462,8393.289676684082,0
0.49010692076176127,6775.132267487951,0
0.42602290972469053,7486.86417982333,0
0.40924218073225216,7732.875745169147,0
0.41270270919068464,7832.2134572140185,0
0.4445578297824622,6070.994860358814,0
0.5070779633867031,7918.923198099626,0
0.5582636073110276,10136.749088768156,0
0.2891291146807224,7652.823519769317,0
0.6040020656518803,9200.889298997092,0
0.37824507285286735,6815.494531736863,0
0.4547107563149829,8881.570955393818,0
0.32956113022988903,7776.414745968376,0
0.16017789632366283,5829.442366701999,0
0.6026019197062611,7794.8106951135505,0
0.5664622852342109,5578.771944606565,0
0.4217015408904125,6562.808269622852,0
0.4640898177324482,7552.190443740425,0
0.4916772807406896,8181.7558793402695,0
0.3165404693505266,5908.168126694181,0
0.3700525576034183,9587.42577264515,0
0.569176078476901,8467.907662513033,0
0.3144475840425106,6599.110676707696,0
0.4625619133834138,5613.6527488745805,0
0.3152103402770532,7094.344322569844,0
0.47299712504632824,6384.60696536135,0
0.45958314575011094,7729.7389033180525,0
0.2669923148369131,6528.534967502329,0
0.5852148795584705,5224.9963107601025,0
0.42518110387665414,7354.129080171945,0
0.340201888826235,7690.764233388005,0
0.46483390143128744,8469.225630160026,0
0.5833169634642884,6617.872566193905,0
0.33098352390290403,9880.169380473057,0
0.4747408074178638,4897.416615698389,0
0.5150976044591269,9102.088283088618,0
0.5626410317780866,6400.593586840409,0
0.4434045536843261,8552.164122668764,0
0.37558620648244884,7183.060183402905,0
0.3549378823525783,9652.711324886064,0
0.4199042947227535,7463.660289694878,0
0.3653660269633392,5431.190640509349,0
0.11139489964348281,10018.271113162966,0
0.5869766371458743,7615.19452622702,0
0.5922305985715696,7361.404705020654,0
0.21420978722982872,9235.047611787706,0
0.3837227092489253,5778.018020220992,0
0.4464433515280881,8617.634966047046,0
0.7566844802271522,6246.52406003416,0
0.42847078627952123,7272.084178835597,0
0.3723798093211122,7402.638096891548,0
0.35747302440197853,5391.669562845139,0
0.6069391341044543,6266.706826262969,0
0.34114981580446213,9366.03562743759,0
0.37414702979761577,8765.29781018757,0
0.37995467046481524,8016.853483861181,0
0.31155738177691505,7739.6152969335235,0
0.4300925715289749,6746.334676060177,0
0.621499367210377,9709.905149488764,0
0.43104828839684994,7156.413732481868,0
0.39481218294642817,7423.19295894233,0
0.4473498083590247,9888.494116773836,0
0.3977801141253068,6228.199089055146,0
0.5574145304968361,9724.822940556935,0
0.4055258146116283,5252.258490957364,0
0.41726744183804504,10463.49822743185,0
0.7705743170305892,6437.06302611634,0
0.46589829281114037,7218.747633088239,0
0.4109432216599589,5291.166391763674,0
0.41606317970001466,6856.426528155354,0
0.6011586663160703,5569.6900096686295,0
0.4487492894418713,6403.011426051596,0
0.3591922109571136,7356.0983102437185,0
0.5352634700862586,9335.928596401318,0
0.3443379966805809,7709.60427377612,0
0.7244225928634435,8209.5105193314,0
0.48500569669302024,5426.110268617589,0
0.3757182614219278,5745.753354717389,0
0.5530205221002955,10053.247320921484,0
0.5571178019750028,6828.607064417109,0
0.6075517228780825,10004.974769940072,0
0.5582304074751354,7222.351560348687,0
0.3521379880058594,7586.8557828873145,0
0.4826921369219248,9438.310135120913,0
0.567730161911755,9224.772425146628,0
0.4556130016014708,7540.266692127839,0
0.4168229689200486,6668.3706205611525,0
0.35250907921213465,8011.1011239929085,0
0.48228875960229095,7766.818961059171,0
0.647866892187548,8572.238739381046,0
0.3675863745216959,7671.245732537643,0
0.46710993761829134,8452.265976464427,0
0.5899632007333956,10055.59532028469,0
0.5024168205833827,8140.158557044872,0
0.37656705687534414,7640.361624364936,0
0.3641561371021598,5705.641441088743,0
0.521540257987124,3821.9674565231376,0
0.47716408822975187,8490.248579225386,0
0.5459781419258519,7199.264386345564,0
0.5770554078518334,6852.783051042438,0
0.7483942995344504,7924.505844949924,0
0.5676099734925648,7747.79519406509,0
0.47055819225106593,9539.744815499733,0
0.480117461482836,7687.081543275901,0
0.4818263292928815,5924.229732841773,0
0.3988873013110151,9519.14792456524,0
0.39285935499351365,7341.099617687738,0
0.52547953677108,8107.273913091118,0
0.6254612669051282,6905.846582190808,0
0.3702435519091037,6071.931607218088,0
0.5460439811885398,7942.858265519858,0
0.5464387667745697,7077.879442031782,0
0.4145445225311972,8153.490205439124,0
0.29973483893188824,7170.367704917051,0
0.3640800937243429,5057.112237939032,0
0.5837563732256973,6882.802577547729,0
0.41756488797564195,8881.21656279949,0
0.38378073797447,7045.485808600474,0
0.3779734566633206,7120.769110944893,0
0.5301582470442787,9005.207933963395,0
0.4373380714984249,6375.322782855904,0
0.361572060634833,4679.82409971122,0
0.4136244865513915,7028.55627260277,0
0.3578178988877073,6847.171525460404,0
0.44196244712352983,5975.894219323503,0
0.5290766444624543,7190.189591497392,0
0.38576094113230186,8140.252370038562,0
0.5723838867732516,7226.987639828731,0
0.5875262876804138,7812.541770736469,0
0.5056652715482393,10128.062024456556,0
0.36852085514838445,6987.224649826209,0
0.45074684593369146,8035.536455307918,0
0.43611157156810587,6682.014868835577,0
0.4377069775076841,5921.563843461814,0
0.4855534200344887,6203.21390789771,0
0.3794120404595207,7561.093304930035,0
0.5890469926792821,7700.26918724132,0
0.44809276618944954,10868.02617967182,0
0.35811739348354055,6581.03493634042,0
0.46615046630868506,6983.32022444651,0
0.47639491955562085,7561.5751881015985,0
0.48579994723755415,7960.883152204968,0
0.4730085609325321,7966.893639124041,0
0.5964853358964349,9444.546790194434,0
0.29663680333022663,3766.7724839348016,0
0.4425114171927869,3993.228117237893,0
0.6033486662116497,7072.792406009988,0
0.3247830982648906,9139.290214284965,0
0.33292194038075823,5146.863806498533,0
0.5185432321832117,3308.999800922159,0
0.4097163184601025,8645.177217274457,0
0.5092123305749648,8340.666767843117,0
0.5240418608907763,5337.818319456982,0
0.44702397064882016,6293.226353869422,0
0.622962728448756,6225.858434168642,0
0.5115262374694601,7400.10725688493,0
0.45586215539594055,6636.003461125142,0
0.48691076205856226,8556.43240279068,0
0.6648833582284462,2969.312328897793,0
0.4817923633506253,6347.490931015143,0
0.34860273357274874,6072.32516135273,0
0.6407849652986317,6794.1831136818155,0
0.4397244690011577,6650.242654531248,0
0.27836447741669534,8787.056182836373,0
0.5464625200053883,4472.155390847027,0
0.41988804271888247,7304.491254768064,0
0.374093381064193,8296.991254258726,0
0.49804018258551597,10525.463069914042,0
0.43965096392761605,6970.47124371742,0
0.4870892494827964,7728.264087772874,0
0.4762154903216548,4989.856176691159,0
0.49275976989511433,3661.2837606805115,0
0.38391325900258844,8284.110624274519,0
0.5095157829643954,7381.516488213725,0
0.4595187392444288,9604.659846173356,0
0.41381150852339127,5636.6838321877885,0
0.5307709818508426,8279.38166708117,0
0.41757565284634196,10178.215115738463,0
0.5850500483965275,8012.62977170097,0
0.46672262409154486,7947.507730144812,0
0.6550992649704237,7192.3028754827765,0
0.3864499595666376,5039.245610750742,0
0.5128991031527276,9468.688565157592,0
0.48551324479589164,6178.391202756952,0
0.41197776416614024,8005.190409305253,0
0.49908084095864647,5278.6005775890335,0
0.28380907704275615,5733.664055220627,0
0.33103240919130383,9560.00256147534,0
0.42133749000206094,6705.618335301846,0
0.49600937030876147,10152.968161740582,0
0.6264533941898007,7131.260247008428,0
0.4388215554809045,4812.631182741736,0
0.42842141566720415,8691.740673175442,0
0.4526605501137844,6626.045311158088,0
0.5615449978559998,8685.316142857677,0
0.39218732923422656,7126.739324547757,0
0.4981962761331759,5183.337784839648,0
0.5642762274331544,8103.6607427498075,0
0.37874984250817384,11322.7852812768,0
0.48094995662640094,8200.47549579515,0
0.4838790348499108,7426.227732656878,0
0.20552957722550927,9776.415011515808,0
0.5767674266559114,8156.479982284426,0
0.34754286718371563,7629.115974617625,0
0.256465481420646,5676.867206495509,0
0.47714603175037823,8137.736877220578,0
0.6367831255465678,8749.853985611699,0
0.4400562639481137,6572.224797251619,0
0.6144206299429473,9737.033720995723,0
0.62777799391676,7517.7571929904325,0
0.5911894525838376,6091.325591648173,0
0.6167247242412528,8807.500674106443,0
0.5569324330774827,7508.406495653092,0
0.3880359159603456,8565.25114706312,0
0.29321717703110356,6939.081528640036,0
0.42259189343788656,7386.219664341202,0
0.3946920935546915,8298.24694631682,0
0.65958620751482,7627.098048369174,0
0.39086204139025954,4337.240881060318,0
0.46261450767523654,5632.724767686595,0
0.461834916449313,9147.699068568278,0
0.377349756133746,7036.006346247712,0
0.648590003302495,6187.672688515451,0
0.41089752673434166,4872.0106082419425,0
0.48814438328346726,5439.281477683512,0
0.4278700783080276,4875.763500911512,0
0.2913964732657724,7352.9409017929165,0
0.3315785251986213,6752.71835517059,0
0.443495129222837,6211.064481658426,0
0.3931697655600376,7414.670037765766,0
0.34706607334181167,8023.521557283715,0
0.3061742874933048,10953.15482726036,0
0.41722523688894714,5275.973644948972,0
0.22608775126262654,9658.800808729808,0
0.5083585287372099,9145.901325109568,0
0.41278896862529607,6146.022008890641,0
0.3135107729179439,7655.713724718065,0
0.3928377019653875,6595.310684057294,0
0.41924961840658376,8143.7972772133235,0
0.5460720937326327,9642.18123422316,0
0.6112202995227907,8168.867509907079,0
0.20044170575609277,8358.84597218821,0
0.5217104478699033,6825.385888156286,0
0.49701553845828655,5362.285556386047,0
0.5178856280973642,7754.241855357541,0
0.5242367092371902,9583.83347407453,0
0.35273606130425095,5217.351381406101,0
0.3434447690393546,5494.838932473155,0
0.3399860367747874,7539.4128551885115,0
0.6267727485016501,6236.331653492697,0
0.39248796792273527,5959.902517428636,0
0.6400999198525605,7506.89321630684,0
0.4452996743521464,5455.898862505441,0
0.35864035355024126,6053.471748638293,0
0.2808876967452327,8355.14831729357,0
0.2725759977438536,5687.96665368627,0
0.26909991202206196,4755.791256301074,0
0.4198303252144311,7204.430307429596,0
0.5094737800407316,8993.138645160372,0
0.33481559309458553,7499.90622156378,0
0.5742867321537485,6385.999681089629,0
0.3693044761360636,7628.162177410736,0
0.4146301845834479,5244.164770114723,0
0.5998545475393513,8419.99010046987,0
0.6023955919783797,7774.519815715334,0
0.4489708583677986,6691.009162263821,0
0.3890393645302406,8873.305926292827,0
0.2704127379384893,5627.72450122386,0
0.39491533057650147,9650.497140593447,0
0.43371131802177376,7155.4365567459,0
0.37777432315080034,7191.946857080391,0
0.41502765912204875,7082.498534468998,0
0.401106667841224,7050.727405048267,0
0.45643427920416507,8727.50433456596,0
0.43450926614762303,5720.26497944582,0
0.4221361896224315,6809.440636741867,0
0.5270709242535769,9133.901610848154,0
0.40819072079124297,6247.1891331244815,0
0.5910033899043421,9155.943918311183,0
0.40742109938190396,10418.54525358367,0
0.45680570923555497,6928.521403899275,0
0.4988000835976277,9132.468237308734,0
0.4486524087280941,6015.930815377596,0
0.5626410260821861,8836.89569928949,0
0.4145632375189866,7558.122366830264,0
0.3309991056362671,8397.776968926726,0
0.4869219877355679,6596.679275228255,0
0.3347350377114366,5164.323577450549,0
0.47459815365924973,8049.502411381858,0
0.5216860164748895,4443.324936588515,0
0.4333688757157789,6778.915811571711,0
0.4610731348694987,8267.633169640145,0
0.22279377802565078,8087.337974383069,0
0.4258450157665653,9971.797272677864,0
0.4382288555096844,9069.819668307384,0
0.4688424725029838,6619.053056346347,0
0.3428785409046377,7638.938974536074,0
0.6178897534830313,7344.020224103871,0
0.3109834530035499,5208.098297564801,0
0.45561617466807214,6230.691746209019,0
0.48418212830365154,6879.348084255806,0
0.40411851929182463,4965.701647531374,0
0.6336218642932513,7641.498447826926,0
0.37992448632090847,7145.606886525749,0
0.5594103243281868,4718.640458427611,0
0.5275042985299034,8237.1031950858,0
0.2899211729267483,8774.02404797861,0
0.5797540406386241,7782.860763012845,0
0.4661137086304167,7177.281488441756,0
0.46318745162130115,8299.40836956298,0
0.47716499442423266,8721.628336341713,0
0.45342353602521357,8234.886048788456,0
0.49046913234598555,6532.669984367004,0
0.554278307920774,7950.254446109161,0
0.34063167427625013,8981.230530753104,0
0.573521490212079,6421.482496289858,0
0.23858822432314053,10825.456205864066,0
0.5505905793532868,7446.197290743991,0
0.47369514933840356,7446.39428855058,0
0.35437948753754483,6628.022909506938,0
0.4270095463104847,7668.09048663657,0
0.4064549849052289,4594.4773477723575,0
0.42074810526846146,6478.04254270171,0
0.4355359851072847,5237.076606466348,0
0.49351452913149796,8109.038040710761,0
0.5667737897909576,8322.631987388977,0
0.5285609636125076,8389.860811551638,0
0.3859916124908404,3589.0725901066453,0
0.4168654464848046,10297.79041478316,0
0.29362417142146086,8355.876708852902,0
0.3444691181370756,6395.571386269917,0
0.5498189773487495,7446.073030731901,0
0.5982230801305165,7587.429594005085,0
0.31330513728002723,6270.082558440029,0
0.3939680671232318,7783.811299389449,0
0.4489803419967877,6640.659074005846,0
0.5084630774440262,7462.129442933534,0
0.364213926642642,5895.691066568062,0
0.4784106904814889,5340.5493709631355,0
0.39538376748941934,7624.084397562719,0
0.4199682082385324,8661.913713089541,0
0.4902319810577031,8378.770829568075,0
0.531888575504023,8906.996541387336,0
0.3698542605195084,8090.0361708268265,0
0.42789276625224454,6421.314415089583,0
0.42566415754867887,9122.875445594687,0
0.4031120325220113,5703.275161621798,0
0.410870821378154,6423.651863748702,0
0.6210343210993118,6432.914944017282,0
0.4376849407384521,9245.386618904553,0
0.46193882709836415,9358.48049244536,0
0.5449987524367615,8344.249727103484,0
0.3669031875818736,9042.177221410315,0
0.4765493728405681,6179.094653237009,0
0.44788133337415337,8015.7395493506365,0
0.42956312714249223,7156.420960798091,0
0.5979833685286587,9259.889810338438,0
0.314642663392121,7416.052260822804,0
0.2650196671417612,6951.0072101347505,0
0.30302127916405674,8427.845054319414,0
0.4621658120254514,9708.210105807993,0
0.6333988421204332,6157.9649511499,0
0.6205400602068464,7154.874939456553,0
0.5084055010249933,5498.167744303421,0
0.4713788819900241,3683.128702229945,0
0.22574388408063345,7874.344980118802,0
0.406116445894556,8273.761278879625,0
0.40217671174688896,7731.182174184558,0
0.4215568912533532,4618.37888335689,0
0.4561610721868761,6823.093507436379,0
0.38289616090467676,4265.531108078229,0
0.2806520094209614,9888.821965504058,0
0.537153203135925,6074.027267763113,0
0.34808337274409984,9647.409418339405,0
0.44945696154304304,9244.579988978234,0
0.6375332218813363,6233.962919231519,0
0.3610170182863398,5753.230265285452,0
0.2945662264047871,7793.879403314549,0
0.43344927701564456,6116.160495134677,0
0.5356484234098456,7496.621303434243,0
0.6125391676232818,6995.260311775895,0
0.3073743760485102,4932.297144679808,0
0.5867616602256148,4363.325330127602,0
0.3874986884841562,7491.925315911851,0
0.47567998595399785,7087.1882257763855,0
0.6993972048828492,6542.271163176773,0
0.3101503488116698,8213.79076601828,0
0.5070437771098063,9128.398085502124,0
0.47389320318414635,7836.312715733538,0
0.5329341663278239,6872.786879687737,0
0.5261531031253027,8152.685608229548,0
0.5201887697462421,5406.965241261734,0
0.44246203600545003,7790.143467092109,0
0.5084037458494273,8093.386137992855,0
0.4340637919827016,8563.309237588282,0
0.5928682215126078,4917.549418705802,0
0.41479529847072294,6452.253889930201,0
0.5108005340782554,5849.255531094804,0
0.3890372014877417,7546.526660133707,0
0.5296065976135671,8055.658649621488,0
0.39682786764774974,9760.947451639411,0
0.32365929651995784,7156.687280916585,0
0.47409054399056916,6708.976413729914,0
0.34333436900362924,9198.061567657003,0
0.26487510202869313,8478.158853441288,0
0.3571823547763752,9664.339064283458,0
0.567805851327807,8105.316389146715,0
0.29182742235389225,6351.764556520627,0
0.7796399709348577,5647.250844271494,0
0.5222800199734465,4576.7734838183505,0
0.5149624402021891,8742.877479501818,0
0.4452238901195617,8805.292697494917,0
0.4800580818340558,10409.644822654305,0
0.4540053825270542,8250.534926246088,0
0.4749210100388801,9104.201243182504,0
0.4725565546025238,6520.8401421365115,0
0.46081651905169246,5534.340542714689,0
0.4333815870484944,8670.46339946897,0
0.4966363781756106,8436.289644467266,0
0.4459113786822453,7446.980687863473,0
0.45507438193982214,8244.599484802648,0
0.5198613517429538,7695.083331805119,0
0.09796048228687065,9368.875416862702,0
0.4769512406685147,9539.630157123669,0
0.4369868406028243,8017.372003524952,0
0.4215955914149182,8375.188178971184,0
0.3561421790094993,8418.65727381083,0
0.5705505521366929,7145.169521750264,0
0.48832055480864744,8611.127506523499,0
0.38697893750763296,5271.063524744096,0
0.5801840717949187,9127.53994475034,0
0.2996599641885089,5724.8595659805615,0
0.30065777134753807,8001.575692405475,0
0.2863899830405047,5473.795532266648,0
0.5242019355194706,8009.352187261851,0
0.571021190642868,7195.543129477081,0
0.53013411126402,5153.1263513084705,0
0.5256041278961636,8186.812811614398,0
0.5371883657018549,6823.972981356145,0
0.48769402191541644,8898.994605983185,0
0.5616844419648981,7111.76801198541,0
0.5091401153463828,8527.232863357576,0
0.4673849735226879,6445.222058503892,0
0.5526452804845122,6238.542465850879,0
0.48295107409541244,6911.853634160628,0
0.5031987226687437,8606.42640479093,0
0.5097672822544628,10057.7248284684,0
0.44443497677148036,6608.235456278247,0
0.39533309705868064,9754.303496882809,0
0.42966546869293654,4470.867184954231,0
0.3376571826094432,5797.196318894607,0
0.4294747348059895,5959.885965227349,0
0.36038889513829514,5525.877427142269,0
0.3576462056649054,5532.548983317123,0
0.4175374461008426,8106.08574117882,0
0.2612748796406067,6913.064658003913,0
0.4785492129804171,7583.201136752677,0
0.47453814032860214,8689.623389405346,0
0.3668748393313669,7972.611927447121,0
0.5012022355574933,8292.872312246871,0
0.527453439976268,7703.505808348785,0
0.2647833814815684,5592.9768582250945,0
0.4052292551164532,9046.328043683756,0
0.3472246258422096,6611.332560838927,0
0.3898805342494433,5991.319729214934,0
0.5337074474835697,7303.882706018274,0
0.4097671938484745,6476.238164835131,0
0.44828480449870434,6531.109857580325,0
0.22051560657039992,8162.636923887402,0
0.5390691646500512,8074.160209751123,0
0.33458320536232417,6199.384049224967,0
0.432140275462956,7029.99531153911,0
0.4988830864092016,9126.288734720514,0
0.6079294486114107,8388.668955172623,0
0.3654187443204871,10827.356947894155,0
0.18669466491428932,9118.88270049811,0
0.4880359153044208,9306.194641084046,0
0.5849474801027349,5342.960892153108,0
0.671838114820906,8605.985993534165,0
0.41482129308459015,7323.721378511134,0
0.43880690840808767,6814.851415921691,0
0.547963612339183,7776.5164235042685,0
0.3056796851303086,9036.180512212226,0
0.49266373938048197,8245.992177637592,0
0.4973969004668771,5701.052994245812,0
0.608244299382309,8623.098895218844,0
0.6974335678798993,6562.680073433099,0
0.47876379646090256,7897.803459592467,0
0.30566085322839964,6866.856140678576,0
0.5168330805057437,6813.059707396908,0
0.2302736797902853,8836.746456029048,0
0.3936051214606612,5857.627453315902,0
0.40501544299981507,10469.165825720898,0
0.3936711215352071,4683.9328720917665,0
0.49762996659820724,6601.679927385636,0
0.43460850517392535,7920.53223053187,0
0.5721628135301268,8086.0461729068165,0
0.47622382719704076,7491.405917373039,0
0.4622256293552202,7232.97791902985,0
0.45791178530593324,8165.010572259868,0
0.44700241320644485,7276.533850384103,0
0.57552544864342,9413.728072221435,0
0.40770697305480535,8397.85798103551,0
0.42748983143979075,9537.062210664368,0
0.3932214824288745,5892.433352160746,0
0.30867940228319085,7567.942510971794,0
0.3776528935790676,7631.1401417899815,0
0.3475442308523739,6228.570260521969,0
0.6012357263947133,7950.113433270385,0
0.4757650715601055,6673.396447069741,0
0.48071610664094333,8233.3235788537,0
0.5120096186277091,6159.221583745825,0
0.3831877187853794,10248.442131680336,0
0.4648852895738981,6001.173266633385,0
0.4484459922120939,7516.301063671121,0
0.5034733874501106,8291.418844282995,0
0.39819579586295056,6939.993555841092,0
0.2199872448220351,8814.814903836095,0
0.42309102879411453,5720.719964199201,0
0.6121247562598111,9431.291961015135,0
0.6019348548795955,7082.172966457316,0
0.5747313261566767,6894.16696046017,0
0.6059947477107395,7063.839052458017,0
0.47062641506840897,8985.549302106365,0
0.40960536795657554,6507.537124269673,0
0.3464481492313153,6304.918112954776,0
0.4365877464238488,7381.684556610582,0
0.5111395528987108,5954.261254740205,0
0.5879821591757947,10470.08554871851,0
0.5031123091456631,6561.847737247106,0
0.4340225134840322,8931.789350565865,0
0.5004082441153725,8146.934965114675,0
0.5139079304717407,5991.7673207725875,0
0.27332589128726825,7337.02142704869,0
0.21806725831770254,9078.828449961153,0
0.36275624250207616,7021.274277305148,0
0.39026055567948204,9478.512367910886,0
0.4308016232966877,9014.746396016837,0
0.45604246798338405,8325.902597042126,0
0.45411288718682286,7149.093061834078,0
0.5144444968661456,5052.8802394635595,0
0.5061999945139384,5984.380171928526,0
0.42762160458890797,7952.560434844282,0
0.5119304864657138,8476.801429901967,0
0.3236483845232345,4051.368935496068,0
0.5803806432259048,7532.176824673348,0
0.4515510629048923,6977.704824251376,0
0.5708527486685928,7295.776254867853,0
0.3187383902586799,9511.828404639897,0
0.3229886989837249,8118.977255376168,0
0.5382778944784562,9471.540306762678,0
0.42222934180688954,7324.035472332561,0
0.3230501862233277,8897.54578171103,0
0.3570385705316438,9390.382940971913,0
0.607035176437146,10126.43984426575,0
0.3496077330155518,6222.0278556854355,0
0.5675672623703677,6734.00248509998,0
0.3543252774133267,6878.711772682328,0
0.5945514505125595,8163.071545567678,0
0.4215870858187359,8853.185202474488,0
0.4972257201053385,5593.880308365466,0
0.4152581854188296,7452.05529154647,0
0.46425643257604937,3941.918068764544,0
0.4358451836403698,9577.388853954333,0
0.36988424539671017,6589.688371059488,0
0.5109268546751803,7607.704129981559,0
0.427451747426019,6854.063109315153,0
0.4339277347848495,8993.734345102965,0
0.36984377562126447,3429.637345432876,0
0.1633992922737688,7611.486308793911,0
0.39804576837706873,7506.691366586926,0
0.7290814343476674,6766.475391465224,0
0.5252845735343826,9917.818243785892,0
0.459475351710535,6133.350067110112,0
0.41145509999571245,8808.042886874027,0
0.48819566024175043,7381.34527276757,0
0.4803995123163347,9510.512457914532,0
0.3264946688730802,6591.9578290341815,0
0.5928718819750125,6419.19192314008,0
0.568456839510695,9099.310834654594,0
0.5008682009297261,7368.146146715441,0
0.572234933159208,5050.63800105474,0
0.46449133351714367,7227.874091628307,0
0.47556899312433254,8083.444369442583,0
0.5239434953177365,8664.459380717468,0
0.3992759603265593,6486.225878887601,0
0.410002562197637,3235.0478758629906,0
0.4584713796197852,8482.480852012388,0
0.6078729627571245,5600.854916136654,0
0.2896255573711641,4601.467683534488,0
0.3428499226534104,3754.506353352197,0
0.42023098943761045,9022.846530126426,0
0.410738174369402,8395.016240364545,0
0.48202858040294033,6964.484321426107,0
0.5385090896779688,10086.393396694748,0
0.4135760506539432,8218.78493255783,0
0.6270252367683669,10030.519908105012,0
0.33284320922689026,5630.639750520934,0
0.3997376750137382,7294.9409064977135,0
0.427226192418148,5101.319220820262,0
0.24203925019682027,7429.064832952352,0
0.34411265692993864,6913.994949856412,0
0.605633396594306,8940.7354937589,0
0.4992121435720832,7152.9668342946425,0
0.42810345118139104,9017.01814023839,0
0.35199191738349256,8855.558040148218,0
0.3503577579939774,10705.47534317638,0
0.4167232650230798,6906.254553699794,0
0.4465401548905773,5936.357470163124,0
0.5517845620268398,7828.38673089751,0
0.512588493300389,6282.031200826036,0
0.32225055083728366,10099.509026645177,0
0.5028564242007276,7665.769171697526,0
0.509234861589064,6711.449424385217,0
0.5662752108292974,6539.337871876502,0
0.6703880670625165,8413.908323016603,0
0.3749828265119452,7208.452289769386,0
0.3413001742339146,6228.463138215394,0
0.3208076580766279,9644.345455803083,0
0.42356206268611546,6844.883402719283,0
0.49984862034964195,7644.133168833367,0
0.64971382272321,8228.519287311241,0
0.4572389733441876,5297.978405481704,0
0.33657914487032453,7866.886914666834,0
0.44346384035619546,5588.534872418009,0
0.2891908263371653,8493.26145093173,0
0.6457619418876438,6552.377466381045,0
0.209741488099137,8463.289528039779,0
0.4336104390468353,8426.237503371323,0
0.5915317607375992,9155.174568401884,0
0.46604639157469885,7785.060563108446,0
0.4310176710050057,6598.226183841929,0
0.42637395001890654,6540.365589108711,0
0.4277787762810182,9862.853205207126,0
0.5315129374594764,6571.971919708426,0
0.24935466363723874,6483.925383394451,0
0.6802323525404107,8242.223043778265,0
0.3239727878992473,6319.810831299748,0
0.4062977831038559,5865.033970227282,0
0.34995287092591604,4871.935738489186,0
0.4725326481466734,7041.29345250101,0
0.30830915107450757,7514.908334899516,0
0.5391419876801693,7949.741126400703,0
0.6628656093175643,9054.99642442682,0
0.3456780911289583,8084.705029692165,0
0.4972777465221293,6911.983144474772,0
0.40406315787577585,7214.000697081228,0
0.4662497768088534,8613.59962409626,0
0.4588717182205813,9891.27838502892,0
0.3519161969402835,7928.10111126703,0
0.4994843866054315,6805.056046714815,0
0.6436693522213508,6091.636177191663,0
0.49806097312274433,5335.670261179273,0
0.4695865152401129,8191.621506155457,0
0.33993300945253585,8374.361998922499,0
0.4136058259831429,7965.597242383444,0
0.5275945384215895,7269.787662641004,0
0.6317294205665982,10101.233652016523,0
0.5090691309532785,7020.680024957779,0
0.47062757653870124,8655.968100539849,0
0.40643001381784066,7420.156936623001,0
0.26952215996421836,6337.160959454573,0
0.5101981670169264,8370.04133052348,0
0.4517868220894725,8426.786522983359,0
0.4540167988838124,8231.36152039336,0
0.45182439304386757,8367.1608573079,0
0.4592538007618238,7800.903598177025,0
0.3914972025295201,11143.758103628967,0
0.4404928395313909,9479.529960034248,0
0.6620530049342362,8523.507390223267,0
0.43038438669317175,7329.447463179134,0
0.43649526907300995,9402.46877438126,0
0.3783407653161449,8579.689607666673,0
0.5621469292891054,7466.990864782864,0
0.44971549376320186,7126.834233180529,0
0.36078415833295197,7750.90574972141,0
0.6355349099394652,2998.266824044723,0
0.5376300210064643,7376.970883571553,0
0.38627101099327044,6840.371886281408,0
0.3020227009069571,9838.715539777817,0
0.5218284447872065,7862.916315959235,0
0.39391924329468564,6025.867692332356,0
0.5507961437962388,7820.762117261236,0
0.21856866350956689,5595.450070790182,0
0.5363606250461695,7974.877663351829,0
0.32262265386355343,8270.64577734986,0
0.5010068978333607,8759.265702059667,0
0.5434943008656744,5857.24741818386,0
0.3240818039225165,7710.79109062644,0
0.4494935804700373,5288.301774780255,0
0.5029198050204244,9089.179403979593,0
0.4171239977561122,8367.162136856723,0
0.5125538677734512,8291.785317533857,0
0.6736077938270486,7391.655379550684,0
0.330396221831522,8599.409936361279,0
0.6742118619230653,10014.07500042984,0
0.5782454453497253,6949.808758990117,0
0.37014216331791105,7469.742663583493,0
0.29044495047308555,5848.76863485862,0
0.44920293399409233,5904.3145064560595,0
0.5315164931761863,7955.3831721436445,0
0.47428373315633576,8613.39770384559,0
0.5492289211701059,7073.724555122721,0
0.39961581269086166,7329.165269558194,0
0.4830330290064151,6992.307959276335,0
0.2574004948468415,6482.680101828815,0
0.45800203216989793,8140.534795575197,0
0.5713319807742876,4988.301715716261,0
0.4549775828787529,9414.693968051048,0
0.13868910924800804,6697.4190243999155,0
0.4984158486969674,8721.729062005146,0
0.415780260266874,5392.490400483346,0
0.4868560408773279,8862.508550788636,0
0.6180600928663437,8533.925283167406,0
0.3208340028309759,8299.20173129059,0
0.45774471857952437,6467.087519302287,0
0.5750993431028999,8209.578449029497,0
0.2479524869339292,6061.45454479773,0
0.5071475172345312,7178.659096310564,0
0.36416895961051043,9282.300187706142,0
0.4109422571037114,8759.131862975408,0
0.4039275555187839,7159.977073477126,0
0.40807493203070405,6128.61327386725,0
0.3759929945527749,8545.28986338283,0
0.40587985491919965,7704.1906650035835,0
0.34902735466440343,3981.1275100903463,0
0.38250029913724704,8445.508072445622,0
0.5093146105588923,7660.60257414803,0
0.34584727447701336,8909.695185798935,0
0.5275637000743277,6294.739962492734,0
0.4480859361982367,2665.5188618445018,0
0.35968275994924415,7992.2842391346285,0
0.3634095415615431,8104.912961007431,0
0.5956555883791481,5141.1989720435795,0
0.38265205797519386,5609.55539121457,0
0.3979757686844312,11880.05258974313,0
0.5204778903275751,7132.530227282177,0
0.5381718198009151,8405.86004919674,0
0.36814052110645423,6299.11017366365,0
0.3769580724808323,4264.329727103212,0
0.5677349500756883,6854.990123822994,0
0.6054201647259129,7618.2733768669505,0
0.495725677964714,7346.028039540446,0
0.5035891629263436,7463.548807033193,0
0.43325313402044385,7829.3828825658275,0
0.4060756783842798,7215.692176738072,0
0.5530725794924615,5831.410459931145,0
0.47805442860854214,8756.625257193493,0
0.5647095858952015,4404.823345137342,0
0.4839015273811455,4089.1880012867023,0
0.3254545667423071,9073.062974130933,0
0.5642772838980579,7724.388831927699,0
0.3471050688046217,7111.347709913151,0
0.46340881457257854,5332.769875114136,0
0.49121767477778316,5970.003548647377,0
0.6160204434775731,7439.524597312224,0
0.7337555024351083,5363.23062829036,0
0.5379520378837841,6219.019044800556,0
0.47334965223414516,8862.379743018344,0
0.5255177741382938,10075.745774954972,0
0.6146410925022668,6836.896676525155,0
0.4833335240735376,8499.532078203745,0
0.6471625689852627,5306.790502441542,0
0.4394638495398801,8705.525408295664,0
0.4473748084398687,6370.974773799435,0
0.5010971554048576,8370.082209053839,0
0.5222871989180918,7218.950563141342,0
0.6069599332194388,9328.934838899995,0
0.40497256272173965,6212.394455636389,0
0.4409187363746464,8753.005732538666,0
0.3301722772553184,6483.083135150436,0
0.5188608880711247,7176.132561153738,0
0.5608279235302983,7639.136379835667,0
0.4165935155810875,6077.929822930775,0
0.6009116912396935,7942.6841192694155,0
0.48742841348821014,7830.450812625211,0
0.5278528989847139,7842.201637963408,0
0.2929693104600313,7456.195927072594,0
0.31408513472346566,8610.784162173462,0
0.5049225459444976,9684.647271671482,0
0.5320467833585593,6486.3923513382715,0
0.38524638724044796,8840.776042428177,0
0.4485634722953131,5538.049293849095,0
0.31846809522123487,8416.896142880982,0
0.4411245667483884,8502.756255039332,0
0.44480155935468574,4260.017041223438,0
0.45494909769833186,7663.481250558692,0
0.4878816662039316,7193.977127403045,0
0.47786429395959457,5822.045108731995,0
0.4702756764048191,9774.253685589681,0
0.4028426839677223,6931.920680060305,0
0.5045461243414961,6122.267402794614,0
0.47899195694654056,8121.7951374649565,0
0.47006871406241035,8321.283500713122,0
0.4281242808574759,7419.851919542931,0
0.19784615650329243,9157.52401310479,0
0.5937167269829524,8204.364585797355,0
0.41043038392466547,4047.493299475441,0
0.36192064445748184,6915.372198998093,0
0.4930794752003407,6911.878488291886,0
0.35657706156152197,8199.714770270977,0
0.5300875281495404,3154.78395133715,0
0.49850032021267426,11444.465613066901,0
0.4235959598567977,8423.143450164524,0
0.30551022266656,7658.300702460608,0
0.6081686932596803,9832.520960782962,0
0.4988137693407405,10546.302299748742,0
0.3932240510457194,8140.934853806534,0
0.4662162986708342,8703.969174798129,0
0.25012989393328805,7909.162396924008,0
0.4968157104814949,6970.957978719425,0
0.40866716213155413,6492.015558434826,0
0.35347292352064164,6546.138413281634,0
0.31859585360592096,6608.243227290079,0
0.5415534410036438,5587.284326374045,0
0.4170711963485147,7620.621499812123,0
0.5358976929367277,4845.440748178555,0
0.38632571441513464,7672.679563998108,0
0.3026126610336633,7688.437869704914,0
0.36796440456704416,7316.936913345672,0
0.6003765416093235,6073.986691050447,0
0.44620340977472106,11985.3053031824,0
0.3873422711875846,9819.435836990177,0
0.48752086137833833,5709.854159568957,0
0.4620638319933025,8106.489582377252,0
0.5279527910585161,5983.1024924670655,0
0.5973193100477044,6072.9294524359275,0
0.4209510411294413,5686.051244706811,0
0.2443706242492103,7743.085809355675,0
0.42685933912565316,6736.546924559602,0
0.5069371857750644,8918.28336708607,0
0.35053269788028707,9912.07433227746,0
0.4492635598418554,8907.700757148154,0
0.45706138390238116,6632.15416119127,0
0.4306912783074801,8094.8009870801925,0
0.4374770232960703,7963.535810631438,0
0.37110296207835236,6630.6461942745555,0
0.41381093606077163,6425.585836311927,0
0.3013042637889747,10225.520999533472,0
0.5171579092630196,8357.833100037733,0
0.5496201056414123,8880.519552678908,0
0.3145240970586705,5977.27137604676,0
0.44513864491567556,6010.122707896544,0
0.35376603040501825,6763.210825398096,0
0.3539824453724059,7117.587012636308,0
0.4138238185959173,5840.096811730732,0
0.29866233492977295,7272.279989191008,0
0.42919637424161217,4978.369920478187,0
0.3429873007045744,5601.031501606955,0
0.4176264333183972,8197.96865045008,0
0.4368873482255037,8549.421518751673,0
0.40810848473905137,7100.804016397591,0
0.4952796982897833,5917.074436357087,0
0.3873233248816072,6369.190063891775,0
0.4501710759097959,6861.968455139495,0
0.5264183209279804,8375.945373930275,0
0.5881992745803427,9090.515231720197,0
0.35446929316198544,6715.474721294046,0
0.49965871078173607,5795.200679730668,0
0.4976861139893077,7145.63391561378,0
0.26051574501419916,6269.709759482618,0
0.5954735881679138,6174.462260466818,0
0.5749870327603926,9121.628964355894,0
0.3473872504900431,8340.076381222001,0
0.3824063995579086,7424.18652231703,0
0.6122488646500083,5427.465340441239,0
0.4709936201231394,7671.147066542343,0
0.4835704357728156,9293.268497458426,0
0.49098162758287184,7003.2658455921055,0
0.5404328031545059,8956.348806334676,0
0.31054588591286036,9464.106325541352,0
0.5165370073987818,10091.075822190238,0
0.5053286869101629,7859.294734921142,0
0.3782090302089882,8362.821756637008,0
0.48022796491488035,9678.373970115752,0
0.2840642706921553,8400.470784894138,0
0.4771246392049551,6275.684842075861,0
0.4785670552440567,6753.890633616313,0
0.4471827327080762,8310.333260077929,0
0.552857132236427,5989.156259570059,0
0.40566699115323585,7540.392705286445,0
0.5604335497017896,9305.868082532083,0
0.4095542174052538,4709.509647772706,0
0.3832439179962163,10377.077553173773,0
0.44566828345543474,9144.837331640683,0
0.4414563082592385,6519.52334326779,0
0.4031172625622204,8233.998546520366,0
0.449223875837901,8433.730244491106,0
0.5240959204669138,8874.178649840467,0
0.4155419715012836,8832.862972296087,0
0.31626109816740877,4976.086569477697,0
0.6367414624421548,8418.32277905948,0
0.5622719557023438,6830.750910866669,0
0.2956057462106252,7591.623548927065,0
0.461382568659798,5822.71360053965,0
0.36554571104403694,10307.491803206649,0
0.5548314560090472,9426.796306794256,0
0.4477422699375396,6275.160167421512,0
0.37882406747061503,5457.54508751194,0
0.3844205479151513,6872.468884313834,0
0.37653130439669963,8206.027171704465,0
0.3505570789779067,7848.857889829405,0
0.4231796178334391,9610.134322881573,0
0.4652472380173991,9054.791323306563,0
0.3572242838207858,8710.132171881705,0
0.5012261698675908,7897.484553083367,0
0.5786211549773654,5686.537739360938,0
0.426984260726206,6779.951488861938,0
0.46161454487541226,8498.918225309328,0
0.42824237093212736,7490.610393082575,0
0.4952674399425537,8403.539476256768,0
0.3961144867464916,6805.187470744722,0
0.6116374659061683,5781.686910951095,0
0.4595981787141765,7086.926207408565,0
0.319759167152961,7703.493592745651,0
0.5472437158269728,6724.517166989214,0
0.527182757299505,6792.283586615706,0
0.36207017352349413,6011.148278591021,0
0.47066687499119525,8907.26652609169,0
0.5793815376329581,6621.729670847584,0
0.45976898131475574,9940.186770113307,0
0.6164383599195429,9637.174209159302,0
0.644522485138196,7434.9630770436115,0
0.3840959020667162,5534.904137238672,0
0.3181053817669537,4148.571347273051,0
0.49442551122755696,5518.770754668314,0
0.5772055293380373,6215.429199405603,0
0.41808179662384093,8974.839621875164,0
0.5791059316699398,7613.404542253591,0
0.3374986519244217,8208.090965581032,0
0.44816375320052726,3984.5384406255257,0
0.37993983595922354,5957.906952272345,0
0.6165698830493116,8570.599863471336,0
0.6124371906645347,7976.315466638871,0
0.4156167016759283,7122.570510622097,0
0.35255467371541066,8713.092862786616,0
0.5305238667634283,9750.78735829304,0
0.42301322403396724,7062.87416580847,0
0.49959694066582094,7887.761415236251,0
0.4521165846590069,7480.483780369099,0
0.29547882814536275,11108.78946994006,0
0.4766400412816614,3804.205300265481,0
0.38596552484034835,8198.45448459449,0
0.3571071814290846,7442.4360096286455,0
0.5369799659107074,8052.9483364154,0
0.32860952662884185,6350.5692894607755,0
0.5096126437186933,7574.478374326706,0
0.45887415063407083,8393.360026854163,0
0.4518582438743597,12416.217923530668,0
0.521652749827689,8776.753120348927,0
0.4376966124992383,6358.606536531588,0
0.7068654696808855,6978.538506688147,1
0.6412699058970159,3815.2669542226367,1
0.4503149671882632,5317.80563929877,1
0.6613098417161782,3953.0660520909296,1
0.8543843213956636,2141.764184859998,1
0.6056728755013031,0.0,1
0.9070707628486476,3948.9800429362285,1
0.8054374754655429,1985.5041991175447,1
0.5788404045025346,2142.911977498718,1
0.7508555377885167,2935.5209865546776,1
0.9585320869090098,6777.264060194955,1
0.8647328767922038,8375.42542582257,1
0.7371488035980566,4216.933454920768,1
0.7478745912398298,2820.367006979539,1
0.7552019048866068,1073.172023765474,1
0.6708784121277325,4289.452536579888,1
0.45371746004036617,6730.7293220425145,1
1.140604293870737,3263.776753720042,1
0.8088366270942524,0.0,1
0.8061778455144362,4756.951532333429,1
0.7414417571430753,5309.82445522324,1
0.6187381014783344,861.6149158282957,1
0.6841114997168966,3560.095662904319,1
0.4879807541882004,4820.8615748199345,1
1.060677016159518,2754.256790834869,1
0.590957935588476,2513.235190297972,1
0.5523572631081636,5315.131343886852,1
0.7372895417972417,3074.6904015378495,1
0.9732932140726098,935.8170374279059,1
0.7529964190641049,0.0,1
0.5645923750540335,5935.805478806713,1
0.9158595017290188,4852.711444374346,1
0.8704534704717328,3559.703136856332,1
0.8742889421108114,3017.9453928264247,1
0.8292338776853935,2222.4616673607366,1
1.0478186015306186,1562.0748608072622,1
1.1058929644496867,2974.1708170738902,1
0.6599673375192577,0.0,1
0.9487747968640257,2313.322078235095,1
0.7781395736272703,2822.2947391813104,1
0.7905002014586567,4866.796418453365,1
0.4671780844921308,3227.322494192319,1
0.7114948250301231,5456.284327100679,1
0.6174145692782853,5903.041919954274,1
0.8481770760312579,4942.818460621595,1
0.8803355222804237,3988.5126848764367,1
0.429675673590778,3534.445913589288,1
0.7534024317937419,1776.5291662534096,1
0.905627364264544,5422.796297968098,1
0.7683448365866353,6211.995486714484,1
0.879683055327186,4127.629531161932,1
0.7390409858697147,6633.240045042405,1
0.8221981454094481,606.174469526028,1
0.7335245125931786,1927.697516417627,1
0.5501234806546759,4698.461847000075,1
0.5219625743941196,4151.835105496202,1
0.856725547544743,5982.680125533571,1
0.7526103922685428,3464.8996187844064,1
0.6843573138475886,2093.4752264065237,1
0.6283677250012497,2767.526049447937,1
0.7007195313197496,1238.0656046783458,1
0.897713681491188,2045.9904369623941,1
0.6830227731069002,5264.530605580212,1
0.5455038636149022,5797.949185229364,1
0.8174367113782133,4033.699333185962,1
0.7018756759056479,522.1900604280394,1
0.7760423810544904,3284.440283209155,1
0.977137942745875,1157.2988623450358,1
0.6800370175257219,5203.2951391541455,1
0.774469859858866,1965.7850399016613,1
0.5303551377649769,2163.9020897640085,1
0.7277350340058252,3394.9257020269306,1
0.8541824029165072,2292.000948672149,1
0.4503429549203724,5836.909814870356,1
0.8104872827906441,2461.842168237213,1
0.7206312088455786,746.9211756282884,1
0.81856040995741,0.0,1
0.9036227842187118,3534.440421480701,1
0.7503100372857118,2169.3120168820606,1
0.9260313419257593,874.397027424624,1
0.6148853843323884,6061.270507111394,1
0.754736689486817,4829.517584627694,1
0.7588038615737664,3488.3705056414938,1
0.6541230352446196,6020.246652346718,1
0.8654744877445388,4575.824331324535,1
1.101099510185751,2617.7050731932995,1
0.8042428683223475,1385.7565656564009,1
0.836573702259721,5035.644628606129,1
0.6984136619579788,4247.968191544074,1
0.6631778599832091,4108.174734487132,1
0.4303658440183598,2307.2561364740586,1
0.7004062786850138,4584.699979264236,1
0.5082915386573211,2227.3019582928064,1
1.1243956920186944,3414.984447905564,1
0.7914285854446212,5422.856966825382,1
0.6662475978578053,1833.8014947984052,1
0.8841736259182353,487.1002300522592,1
0.6118831058369554,1436.9354517207407,1
0.6663168132683854,4929.953161448482,1
0.777904290786341,4183.390818696466,1
0.9544017101921665,3268.6562446654852,1
0.8203339989099435,2519.222786223124,1
0.772580064634341,3996.8012512435257,1
0.747843100768418,1958.247808944161,1
0.8443703076079013,3262.1925967570887,1
0.794855177381494,2134.8548828949256,1
0.6071555054110699,1903.1682071472299,1
0.78872125321526,2425.0971126114287,1
0.506904604848183,2355.0360672850848,1
0.7745651343901296,3479.5513163267765,1
0.6866455643317124,3611.391050240643,1
1.1976595666694574,0.0,1
0.6828723231466964,2261.608411802623,1
0.6016515303558321,3399.408157767052,1
0.7328893335554479,6224.519297135798,1
0.847463393072085,1310.8666673200923,1
1.0680413434272535,3849.6350468328424,1
0.6840125907294151,6472.76330477425,1
0.5286505354749564,1322.9559158567295,1
0.8822171991467399,5032.089268295048,1
0.5235710687152773,1841.3094281894635,1
0.6834371187934616,2667.328707855167,1
0.6827364165284409,2519.0758849094946,1
0.7377723060279645,2628.5046159569647,1
0.7599374406789464,7814.418488274373,1
0.6646164403597438,5019.013283717004,1
0.704071122023641,5928.484380969786,1
0.7344112975909212,5252.781173425435,1
0.7812300169854239,819.876546001721,1
0.7073315192875708,4100.565358473008,1
0.8925716661482382,5128.512360382007,1
0.8724652279867566,2629.503953988854,1
0.8030613400287576,5456.210476829755,1
0.7794219801210659,4513.3850996717165,1
0.5136243802859988,6772.725170764472,1
0.8130125504857834,2841.0465325240975,1
0.8633627805775226,1687.4422280701272,1
0.8935186892311897,2579.183805865681,1
0.6680033419316217,5899.770662256874,1
0.6368024076641988,0.0,1
0.6058783720259922,88.85239910557658,1
0.822420534109036,3558.4259620458092,1
0.8956472996572842,2843.2357677615064,1
0.7308327614931094,3940.5877602891305,1
0.8985699647424501,5267.522230936741,1
0.8330144324908311,2471.484034201345,1
0.7792566750271616,186.76594739006316,1
0.7000325411471409,7199.024884114968,1
0.7901865368255289,2078.8385819735863,1
0.8542596818757198,1686.9846996398614,1
1.1457492230763755,5323.375718827,1
0.5675178399143124,3122.274299192193,1
0.8880848560975965,3755.0435732448464,1
0.6859045353519738,3967.5230352624335,1
0.6260343718767296,5910.284751028424,1
0.8129612596146473,3009.1842842353562,1
0.8243902788402799,6320.894595689719,1
1.213779271338822,0.0,1
0.7413068102799991,4697.524109214255,1
0.6051289621985119,2275.0997498254937,1
0.7749493102688568,5857.055728973028,1
0.43659993637875194,3313.19485798188,1
0.7001137964255785,1989.4435186509968,1
0.7390822013147172,4863.220517309906,1
0.8545247022950243,4824.098522974655,1
0.8706311226293104,5138.4322581024435,1
0.6799344172697809,2003.331804692384,1
0.714448663777487,3028.8009272901368,1
0.6551712642224783,3530.1024670846405,1
0.5158977922470953,3503.0911104183792,1
0.7919500251428031,4491.428299515743,1
0.56422423331761,171.91283453535232,1
0.6753807953207454,4215.738734707432,1
0.5938281980227451,3148.2252496017263,1
0.7690426375143447,2497.1924339447505,1
1.0344735990767528,1981.734904830468,1
0.5806660418821832,3075.98973890447,1
0.4917887193335153,0.0,1
0.7728160495751771,1957.0481509375982,1
0.7604158536249639,1867.25366925362,1
0.8019461432396321,4606.894719920814,1
0.6892955522531223,1952.4255900692137,1
0.747406133959885,3505.4919826118517,1
0.7420373761358054,5822.820561245245,1
0.8703213951776054,5626.664107737764,1
0.5202186707335812,5322.444162343017,1
0.5962416512614325,2429.5810489934897,1
0.7764642018981457,4200.135532252375,1
0.6591945826927124,2454.899174010795,1
1.0059450181434242,2908.4797170573615,1
0.6384880751076616,4551.586615244689,1
0.7489829640215195,2408.5858229587193,1
0.8192785073262457,6536.299852115319,1
0.6625412613899935,3025.8044275363472,1
0.4456788013685323,4825.180867299366,1
0.7300487977607489,5904.8312820378105,1
0.9613466802316826,5067.304292372364,1
0.6941301180977643,931.8074500058528,1
0.5675752779535036,4101.322657621793,1
0.8678971046128724,4568.448265318,1
0.6930242191924235,5050.65902967425,1
0.6936974330285958,1527.9999235230505,1
0.7320978845226693,2697.844156817637,1
0.8348460386971321,5571.246527474837,1
1.127684075274234,2494.814292541087,1
0.9116417694301958,3176.654347522287,1
0.8991122331514243,6436.360284788538,1
0.6207763879937819,3045.2778773658106,1
0.7274845121560939,2236.7682112796647,1
0.790681871926417,2099.326890846015,1
0.7553953368182582,4536.126178064469,1
0.622984339816544,1306.220147260568,1
0.7187275553258211,3426.910295368074,1
0.8445839158218771,3790.2155955724675,1
0.8104347371637609,5740.544389141373,1
0.8292940539343437,4830.391758764373,1
0.789101434791385,2562.9685948548467,1
0.616053447770968,5577.586177863021,1
0.7504387019783991,2936.1391446697944,1
0.532495933490209,1481.8766521119576,1
0.9633153128253403,2852.5643051786124,1
0.7435031593826393,6570.925927009292,1
0.6778131690903519,3533.69126218456,1
0.6086126761597204,2946.9625287258245,1
1.2178592392916374,6450.00106302191,1
0.6288129111877346,1433.0988860147008,1
0.7182620400239562,1361.8575338050928,1
0.8001502432514818,816.8035151607921,1
0.8420156179681051,4183.182464356234,1
0.9100049703182522,3753.974379625871,1
0.9508297792077066,5813.452650225662,1
0.8487470363239011,3260.439261474931,1
0.5333034085016466,2831.398814469514,1
0.7930720951879924,3896.995529482661,1
0.7799942524914149,3815.1134646781443,1
1.05283889913809,677.9095661249033,1
0.5095408942668413,8853.71222349467,1
0.9051876745095565,4534.397888015757,1
0.8679508981976921,3841.2184243483744,1
0.913289367829354,4361.737730006425,1
0.6727326946986967,5383.603533947515,1
0.6838036215084602,3404.968059841727,1
0.910360607915857,2080.68543999094,1
0.8369161555743116,4227.660935038696,1
0.9080764225421518,4570.198631035289,1
0.7474065415163617,1730.9653127165677,1
0.7389298926799,6610.414347711741,1
0.4843303431867402,3201.094826254157,1
0.87874641461194,5240.453411418728,1
0.7964576091268857,6151.526041172443,1
0.5478109888856919,3574.9782050137646,1
0.7568794792077058,4017.8760820588786,1
0.6327235150431874,5525.267983889218,1
0.5363575027021482,2407.3677066802666,1
0.5577196162540166,3326.3319104541665,1
0.5639626249093231,3210.3144691634025,1
0.7050069010741478,1832.2837709140827,1
0.6062060160704711,7671.424879551757,1
0.5294213358994139,510.911390501023,1
1.0426268909098988,1146.7949157184155,1
0.9842844101503292,5693.4274463441825,1
0.6876175233056111,4786.666271925785,1
0.767393419068841,1871.0404120291205,1
0.8156890778489124,5040.903211422257,1
0.9360010472749108,6414.797511905944,1
0.6519832178183761,3229.0942713763643,1
0.9143912974471347,8288.555758783006,1
0.6754226427426735,415.62087688514333,1
0.5398843803829033,4349.243530557113,1
0.8632300785760554,5719.220840605488,1
0.9955313713597695,5661.420724264758,1
1.1640296756780768,3141.8876732939343,1
0.5980914358142028,2498.950528462311,1
0.8837607657275415,4308.541909289649,1
0.6823774623157287,4604.24441628175,1
0.880256888321786,4843.533837374141,1
0.48601962018188266,5529.5637009456395,1
0.6113368398978937,1614.7610612374535,1
0.5223003592312986,2990.662957820711,1
0.7583586711567957,1744.3010316925786,1
0.6994736491052577,2807.479351347641,1
0.7943034342418392,5095.727098863286,1
0.9200253894433612,3278.045133004981,1
0.8127059733236424,8533.95617767798,1
0.9780660153415754,3732.511167992403,1
0.850211632843879,3657.5583162942685,1
0.575387770484381,3776.7138403426375,1
0.8731322423153765,2448.5504967486795,1
0.6201695430698364,3043.748698590804,1
0.925576204348386,5027.266399435408,1
1.004017841210986,3528.5394452223927,1
0.8884286245105313,2190.4859459348377,1
0.5928820817858345,1616.4627228961626,1
0.5985783698176596,2583.160188891712,1
1.0485411822355497,4271.143406064455,1
0.7256107839476539,5094.828598415911,1
0.7234292888649638,860.6102467672645,1
0.8384780677881184,3493.2939203724172,1
0.7641794251004718,3746.3784333845747,1
0.8561007321877904,0.0,1
0.7824902238786847,2350.1537657638046,1
0.6624794355876136,2292.7697594191977,1
0.8695694522584253,1962.7608085559011,1
0.8368597314246721,3903.1118591502186,1
0.672990877821647,3013.560060081935,1
0.8421127656981247,2195.237696451711,1
0.7222305785794559,4236.253649504319,1
0.6094074966714711,6298.2354037404475,1
0.6206179455249473,6453.869723674098,1
0.6120975170575736,145.3327805300965,1
0.7663192838504866,4794.648067718735,1
0.92293493296276,3517.935573540139,1
0.6360534427942782,3657.558666667966,1
0.8073461851025129,2932.914922005133,1
0.673662315216398,3859.416567658871,1
0.6863767028313708,3870.8789276744287,1
0.5273489031267736,2314.049013486801,1
0.7388208584332816,1578.1180701754413,1
0.6758101395288246,2842.9483380048964,1
0.8815847520372146,3409.6079073642627,1
0.84075569319687,4497.841585261182,1
0.5413299710394135,4269.938854517684,1
0.9203765373404582,2209.537231472078,1
0.8072365863001405,3747.7800396106986,1
0.7579344613234729,5561.521927804722,1
0.7678872008197529,5804.503218580712,1
0.6788666079683537,3227.920457410587,1
0.723953623856757,3321.1338336476224,1
0.8397047180284296,4110.3105099196255,1
0.4439599496473254,1382.3270942722531,1
0.7067539884645675,2736.1894368719786,1
0.684909511434106,4777.881824231799,1
0.7819741735076959,4626.137111447021,1
0.9838878074269319,2643.7819948959323,1
0.6540941436716364,4002.0067998358904,1
0.6321267661943419,2099.572943767469,1
0.6325232205710541,4899.798676773301,1
0.6057987499393697,3443.598344104582,1
0.7137077890674273,3222.2402974814463,1
0.8799523255955064,2795.0986866699945,1
0.5582005835088334,3447.326571791541,1
0.7674837798483611,2574.4981538488155,1
0.5059780017006831,4509.307700118028,1
0.6585248979020626,3189.9645027994975,1
0.7868652404652117,5754.204762391337,1
1.0026930971996328,6400.406903012765,1
0.7813497673951078,1709.0594556281933,1
0.3729981350581887,3400.456231679768,1
0.3872381463883442,2407.291326814471,1
0.7103010326509808,2465.151502555199,1
0.8896308196266249,6859.562520176774,1
0.8765624422318293,2691.629555237664,1
0.7438483377120432,4081.9873892838427,1
0.9059162984354677,4233.137022766695,1
0.6223020804809303,2179.2027352219475,1
0.8117709895192883,2499.933101012817,1
0.5339342351571026,722.5616746409669,1
0.6231786371777766,2068.549490413722,1
0.4793633100671826,0.0,1
0.652770943412996,4643.143882145861,1
0.808659084683195,7000.114866333417,1
0.7469809543119991,3692.8486616181863,1
0.7806275599257293,726.2336567535981,1
0.5526845441684518,2216.9233014324454,1
0.7138428657532162,2311.0321703548525,1
0.537037977958681,1633.9107545255586,1
0.9675673549919699,4597.488235719761,1
0.7106420307947648,4898.42771360716,1
0.6964479818253972,1045.612264398283,1
0.9431202310252941,4867.1907885429355,1
0.571557924185202,6044.43692615621,1
0.5857122402344158,7011.778873775569,1
0.5948338586375177,8981.855860064168,1
0.742713101437845,2353.247311833657,1
0.7638162334891037,7825.195390805217,1
0.8082393301333162,2612.170272522046,1
1.0472285701888633,2342.63635718147,1
0.44528651226369736,4226.8286202945665,1
0.8744166387580705,1957.1832473862187,1
0.7001724257630502,3923.6517311236826,1
0.674309326165142,1162.9682228699899,1
0.5717094120531939,3095.7117887438185,1
0.5726161297073934,5927.333543777051,1
1.0094953418942423,3530.392393490354,1
0.8817653191637572,3856.4507460665477,1
0.7445694682575253,4413.562083480609,1
0.96740905098938,5623.912864769698,1
0.5235867235125785,720.0244449763292,1
0.5552250489224155,3880.3464933381156,1
0.3977422268575162,3480.6495954561965,1
0.6843682584263705,3138.603596297212,1
0.7570239146584976,5084.16176050093,1
0.7122028233690251,1282.435788463637,1
0.7415613261462329,1879.0238727293915,1
0.5244028276856085,0.0,1
0.9102333229268572,2503.0766076426517,1
0.784253407798458,6132.49673170659,1
0.8525122134612738,3581.298495556298,1
0.41613913637098715,878.5762902721482,1
0.8281429324128515,2535.527673678406,1
0.5457571278514356,637.0044950490901,1
0.6864003977596422,1356.8626208260837,1
0.8893620578707321,3890.326073256154,1
0.7840145741803592,1120.2523639078727,1
0.5571388411244952,5633.054825974454,1
0.6801605639735638,3411.4680884872178,1
0.5176972847086837,3801.5464193772877,1
0.8740304847897522,3063.132975216042,1
0.7451492669808822,5102.42768972298,1
0.919473014236898,5173.151997445118,1
0.6776356376965481,3580.5828474820773,1
0.6431938744733184,4260.3274955094585,1
0.7050273282157913,3048.8258068962223,1
0.9951298388743797,4469.162154790086,1
0.6324419374504601,2690.7928320017377,1
0.8608108847988766,3777.6240211888153,1
0.696528834072179,3599.6257616278444,1
0.4432180304786143,2732.8552158999673,1
0.6311700711227183,2284.901073760241,1
0.5297350483463537,4596.679063477292,1
0.7096615179313297,5299.338716503203,1
0.5876484406707922,5616.524231136729,1
0.8681092859790471,1531.8931429384713,1
0.6332069069414248,5627.619293372039,1
0.7411549296101221,2559.346523117138,1
0.8468533693695711,4525.577744232131,1
0.9484529601674253,1850.6067723544438,1
0.7619100831181925,3482.968160398572,1
0.5751730112151945,4693.550112029718,1
0.3947174919539813,684.1024602422412,1
0.6183136410712055,4248.78309399157,1
0.6324138661750597,5894.596618387784,1
0.8037849859888512,3457.9918890844174,1
0.697873130537713,5953.526910189892,1
0.8985374857316546,3304.2298877988674,1
0.6050591870812911,4767.798977583963,1
0.7800544003472767,0.0,1
0.9564376826167702,8022.313311139767,1
0.7205444176359971,6506.135312100606,1
0.7938990823971462,3097.222282085929,1
0.6634466733803775,197.70496335976304,1
0.6706970706474936,3756.5352950467122,1
0.5878121675600709,753.5108902603688,1
0.719858850649444,4704.680546270287,1
0.8159157826420923,4708.740878680897,1
0.7500004400411175,1461.3546158806323,1
0.5803583386291622,5592.661462865023,1
0.9762586968320786,4820.751324905545,1
0.8773297226486775,5047.372566309956,1
0.5482196291317254,3601.3957752106467,1
0.7098783653247174,1294.3455592649507,1
0.7055481256108324,5395.668831965305,1
1.0903980141149492,2917.477746579865,1
0.534800853652166,1152.8540962337438,1
0.9374015652140293,5825.678006679516,1
0.9201320953285836,7402.5678271236975,1
0.6309423021249071,3844.6930779741547,1
0.7399231189263829,6763.270180495678,1
0.6356557214409407,3903.5422010624393,1
0.6686294588733902,2353.462896029427,1
0.7881303906108401,2733.673095629479,1
0.8907467195176834,6255.640651425078,1
0.8760093842992713,1730.4396002200656,1
0.7017314940503974,5032.065526081601,1
0.3966269352361793,2602.756115836148,1
0.721822379797459,2371.6917564776486,1
0.8131907344589757,4978.549521994702,1
0.753270001764652,2759.689230431779,1
0.711551776300817,2410.1422319921135,1
0.778355858101722,5220.606563037565,1
0.9698337504559282,6410.0013649253515,1
0.8405561468879988,4370.680155635091,1
0.6848603045432318,2449.376190884854,1
0.6842319701881528,3027.9477800294,1
0.7703810214478566,3599.2808502618927,1
1.0271384426756296,4116.719430061859,1
0.7539455852036387,2327.2703815990567,1
0.7010636642332226,4445.187956030551,1
0.6986446673796074,4011.2945519055006,1
0.8797075519775146,732.9823058251116,1
0.9927189890205802,2084.2275333228204,1
0.8147237035633095,2980.0927426467947,1
0.7262441281017502,3453.0286498736864,1
0.7871421337297343,6725.822983227412,1
0.4249354000699511,4257.080338417501,1
0.7856675801854649,2326.4632616963436,1
0.736992860816301,4228.72961820088,1
0.7558598407223888,2879.5926792787855,1
0.6247754998237287,3869.7064770763773,1
0.7105384949481892,4602.43051289759,1
0.6786547355973884,5959.284170273439,1
0.8796530779842705,3763.589844751943,1
0.7451930855820617,6321.226111557321,1
0.970204761412618,5229.052661403361,1
0.8641042385929846,1833.9753279922752,1
0.5368760692744209,7773.225229248991,1
0.7275936956076949,3853.5974968686564,1
0.6311541981677333,2232.352500721441,1
0.4825581537485611,6130.45211899771,1
0.940681501144858,7549.424425287402,1
0.855940836121878,3537.105082311622,1
0.8510786437592968,2359.0222226388423,1
0.7103704383295489,3397.131990907566,1
0.5059014378782882,4609.408601990261,1
0.6715302877267553,6025.008490288464,1
0.8408005148302269,4444.6437529402165,1
0.5596933246838587,3166.787637560287,1
0.35624009603932044,5901.696314403689,1
0.741917352098708,2807.769935901075,1
0.7150276558207435,5766.111516185007,1
0.8134715602411242,3251.830052126466,1
0.8193674852208062,4762.99974811625,1
0.7955639814157431,3791.677948186145,1
0.8658692870154335,3239.040829847666,1
0.903011383106386,2764.1582106403735,1
0.46971805259511645,5797.353278826089,1
0.7560051145007354,1979.279949814314,1
0.8869848926528989,1615.1335326113872,1
0.5504134765015617,7313.364103116144,1
0.5144210192949856,4874.455938264463,1
0.6317406125651942,0.0,1
0.6912864990094975,3117.2655122901688,1
0.8558317261663279,85.61566348909011,1
0.7515813335996409,1847.188953540961,1
0.6268981452199885,0.0,1
0.700726330174149,3337.5061477406757,1
0.9500044444393081,1532.249981892328,1
0.7504986133462214,3499.1087321271652,1
0.6996335067556447,505.21834149308546,1
0.7467777323375044,3361.2381790533236,1
0.9642129993972693,3006.9642020502333,1
0.6147207990844527,5681.067840355244,1
0.9539797982790418,6331.768852656785,1
0.8310226439686095,4492.512569994937,1
0.808735002266485,3200.877377032813,1
1.1593098475041193,6967.539453604873,1
0.6661644639854218,334.9758934483988,1
0.6717721676166908,1147.3840603092983,1
0.5932106042077717,3627.820680722416,1
0.9464100759236763,7425.8450016269535,1
0.967525006728872,3351.9731322375223,1
0.9810648127288955,2484.633213822487,1
1.0031085034453107,508.38247207476326,1
0.6813529755991276,5590.3959326273,1
0.6415686520702946,5148.616475533462,1
0.5604437970714706,4361.671364585183,1
1.1032515592764864,2157.74293474215,1
0.8376315214816209,1950.9076751710656,1
0.6743780340837444,1122.5914298291757,1
0.9316675531238459,3539.745208027386,1
0.6153632774383619,1608.946325980145,1
0.8741855834294631,1359.810475067508,1
0.7336482749020579,3145.278486071889,1
0.9324799416719237,2746.8834645843117,1
0.7045462896964726,2668.940131478557,1
0.5315735861601856,4689.147411480826,1
0.7464141091939491,3525.6554187416277,1
0.863923959554811,2602.7559120724427,1
0.7394941898015159,4191.514368350342,1
0.8829604403047805,1756.0038504440959,1
0.6141397843469731,3731.306885407099,1
0.8328789681673044,3581.08551066127,1
0.6749021305256557,609.4590532254616,1
0.9080525981628911,5546.265459497905,1
0.7573675041912584,2208.816070032691,1
0.9206332754685957,3897.7046602955807,1
