emg_rms,steps,Label
0.8280556182585262,8216.386586225062,0
0.752195905379235,7286.0723674951605,0
0.8252664079987014,8484.391782868555,0
0.9622957373648936,9973.917076941272,0
0.7062660486240039,6999.326476217648,0
0.6746962974154302,6979.525166273697,0
1.0953711650407387,10116.143171689682,0
0.886822155348102,8558.623145353104,0
0.6220940668735789,6543.181350382159,0
0.8080821602024519,8216.814076958974,0
0.7133820554898377,6738.862913732506,0
0.7135866796210535,7112.397915189767,0
0.7764449076300632,8047.908649824399,0
0.44604026993327844,4859.583756339752,0
0.5039584691630246,5076.617979699808,0
0.6763240931499127,6845.817440461604,0
0.579178265214687,5843.136894182301,0
0.7397244474893738,7931.650567822214,0
0.5926062545747333,5939.980824113474,0
0.5485027487397411,5339.446841889656,0
1.0060004871538537,9835.294151569278,0
0.8177732735322333,7188.252206232646,0
0.7983738147628132,7863.588470823945,0
0.5281777084852772,5134.594562234372,0
0.7113053862680405,6783.473583351874,0
0.8106734309787978,7416.723324190935,0
0.5948637717360962,5792.344927701275,0
0.8194564771180354,8211.613712029804,0
0.6875080642935232,6556.141451756948,0
0.6706566139568011,7172.684696127477,0
0.6904214341611803,6405.493614689318,0
1.0189629623282472,9945.67928112413,0
0.7747280969939456,7591.16008739066,0
0.5529567834127873,6262.235653381295,0
0.8213243010283741,8534.608380120804,0
0.5481164531171147,5913.173361064825,0
0.8045171434099756,7821.980074270416,0
0.4773445353925057,4293.356509841721,0
0.5257716985114024,5281.419866381922,0
0.8208907369306608,7798.448808475816,0
0.8419531753936582,8526.807412408294,0
0.7336154590751063,7494.469826433308,0
0.7209578098689511,6987.7197201725585,0
0.6980676573460864,6879.0005910307655,0
0.5844573208282836,5320.978816115083,0
0.6574161346765357,6418.953536887309,0
0.6485919060600408,6708.794252060303,0
0.8958188350791989,9126.060778186671,0
0.8413350809782467,8223.43277832523,0
0.5568722120686582,4934.265069042728,0
0.7155951623971516,7961.864219814277,0
0.6485773295512892,7107.990980707664,0
0.6911703583020106,6292.646939097803,0
0.8315230853871781,8372.530525350232,0
0.8565121098610017,9006.281696623852,0
0.9144017226605535,8649.529526985729,0
0.5405934408016008,6157.19888270917,0
0.6700800331405244,6621.189500044117,0
0.8190849061996729,8379.330756637937,0
0.8952677106385124,8775.834932996277,0
0.6505034129247946,7098.461469516328,0
0.7294917468559893,7229.128436148173,0
0.573998556751209,5953.470365422149,0
0.613864214787466,5607.930104208807,0
0.817724957170228,8760.37467198363,0
0.9401435019895559,9664.457970853922,0
0.7037973140183587,7524.895300508336,0
0.9287390156577325,9160.254024852908,0
0.8343123126755175,7968.787495563616,0
0.6391424948557766,6436.248433594043,0
0.7965384369028459,7723.2581432091,0
0.9149187254272081,9911.69865193434,0
0.7553930263414339,7662.736683599762,0
0.9923744934928392,10170.161819704595,0
0.4540173910733404,3631.416870781485,0
0.8337184421535484,8579.557801981122,0
0.7938456680244101,7291.151373699366,0
0.7134883593015096,7259.82232091787,0
0.7793615602898426,7278.385851447746,0
0.4838274128451553,4450.525812549908,0
0.7651856423819101,7125.630802655003,0
0.7890888099749309,8021.777829697416,0
0.9755636895049512,9724.001587119443,0
0.7403036278757875,6750.224183863044,0
0.6736018317656246,5804.186943244512,0
0.6594795990872687,6750.29561659722,0
0.8283632288781103,8427.188061730736,0
0.7655878635557289,8139.570279107726,0
0.6619358146813665,6594.33466318872,0
0.8552073225440416,7838.493804625363,0
0.7929077766331667,7482.775388544986,0
0.8587964687750026,8838.952417962404,0
0.5942439458680696,6685.060282694973,0
0.6829760631813357,7047.834328453397,0
0.714363566646354,6980.726759171879,0
0.49504854257737874,5540.971904645942,0
0.7896797065613869,7924.951558011966,0
0.8015985096895026,8042.420500476314,0
0.7787669939631523,7644.44240775009,0
0.6883915422234227,6890.825401223397,0
0.509510759461341,5671.5406024503445,0
0.709509315779348,6584.971659837823,0
0.6374799370177953,7169.401555105415,0
0.5804976168861015,5993.169488786445,0
0.6899124609232694,7378.318790131321,0
0.794146587608956,8478.459260851841,0
1.0260437584511348,10286.683120505753,0
0.7078707925759188,7710.59559067713,0
0.8140072363749553,8008.413585947516,0
0.8033488270999413,7322.451835158241,0
0.4678007556495952,4985.498917800002,0
0.74917633908762,7498.667636717913,0
0.7395636336453068,7526.3114132673945,0
1.1210746413481607,11086.806063148793,0
0.7334856150616336,7024.868858793712,0
0.8177506986816035,7826.77001614892,0
0.7316598604823211,7377.797666710416,0
0.5858348658512545,5649.455128870985,0
0.9200794877032987,9082.59916694511,0
0.8840063310184676,9047.667795100648,0
0.9398534240693129,8480.528905266672,0
0.6275838956100437,6165.245335337127,0
0.9769181942517354,9722.695668356324,0
0.549883288726799,5523.245004928325,0
0.844729193550732,8368.56422554391,0
1.0501917188866408,10737.542924345507,0
0.6529769517327092,6104.505010551869,0
0.6315433559159164,6703.857735591482,0
0.7549791963908582,7597.685280677959,0
0.637099033753235,6432.4108044808145,0
0.5327846659182014,5080.420108934151,0
0.7534534061421683,7373.53442946755,0
0.5794635569915089,5773.112519397578,0
0.8249055725906985,8217.033293656164,0
0.642038496710157,6192.610877448618,0
1.0051257663849704,10180.99215778479,0
0.6143635585166488,6217.638785714881,0
0.6932666809581987,7171.832852746517,0
0.8614110065482116,8781.467830942072,0
0.5513871901768324,5912.903059477025,0
0.8348245629304529,7956.435645825319,0
0.9545878579104685,9259.017845966378,0
0.47114961490692236,4744.165942299912,0
0.741629094127143,7839.2031277319575,0
0.7608181897903403,7784.133991792557,0
0.8660892499773085,8476.671558475846,0
0.5299558451088575,5391.058392776262,0
0.5067615408216506,5551.510179891016,0
0.7941098929616762,8584.45388828802,0
0.8137519961249335,7863.742540708571,0
0.7610253358382354,7993.7933377338795,0
0.8304532562986982,7999.2190442019455,0
0.6541802177425495,6222.086499811586,0
0.7875909367767232,7995.342814443589,0
0.7757674066068679,7720.670301142548,0
0.6895969290857064,6432.798199079161,0
0.9751652822644448,10230.357683716073,0
0.8353289278308157,8389.36486828082,0
0.5865105805424923,5501.41455570189,0
0.8893223922810727,8563.004394511137,0
0.5386661150529776,5870.018013189278,0
0.8378349005447506,8578.40586314792,0
0.9473687998451027,8510.853323003086,0
0.5964060843079405,6687.396236796016,0
0.8588667668120803,9055.175580431729,0
0.7809248050328428,7965.701893217114,0
0.9291409774009864,8508.159102325137,0
0.9998764829784269,10246.059723405053,0
0.7091386596640699,7275.293732959584,0
0.645445958428471,5990.97876834678,0
0.6310679423563961,6137.411471702848,0
0.6632885050849372,6630.412947044378,0
0.7590485438555776,7157.558168685283,0
0.7921357922074019,8027.8049699776975,0
0.7480242371333972,8355.698162046581,0
0.8111872929921109,8867.20519949219,0
0.7608813304871066,7544.687601913952,0
0.9320775147540249,9781.628406717777,0
0.7433401788828838,7022.841683141125,0
1.172488691241838,11840.180006945116,0
0.835836698311976,8358.635017067467,0
0.6168449009308827,5822.427343628381,0
0.5942179586037782,5815.40063212024,0
0.8567041900180193,8030.361716889438,0
0.7139476478058974,7108.567019571738,0
0.9248669371446643,8519.183929322011,0
0.809521980133665,8449.341076821298,0
0.6713447304719349,7529.815176347568,0
0.6503565043145803,6282.462520412471,0
0.5834830412168055,5227.140080704685,0
0.6357983663185685,6618.455970127869,0
0.865820837625355,8348.363143952074,0
0.8024807164510155,7843.772618473862,0
0.5587470365633952,5790.32007264675,0
0.7793008607841274,7738.104612127855,0
0.8620512684519954,7971.005205035915,0
0.6553247462046067,6267.114278741143,0
0.7543009658016228,7713.921218793423,0
0.8032227852573887,7924.461916063792,0
0.624562516111576,6032.090221667722,0
0.8211070141804848,8228.58265192709,0
0.8711293113565368,8492.723612394333,0
0.9826084109803003,8866.543381872625,0
0.9398850069458742,9213.301818462875,0
0.5508166830292424,5508.761139593678,0
0.6646114406518191,6214.547385805548,0
0.8619242486813065,8371.0747981756,0
0.7976339250427116,8361.231443937926,0
0.8169151489093066,8812.74482336899,0
1.3610382356942665,13263.860101991697,0
0.8048612872959936,8543.603242205616,0
0.9743562019621397,9109.150498218098,0
0.9214849556670408,9089.130962017338,0
0.8034869735795848,8664.950855005189,0
0.6754722853992348,7099.981348466551,0
0.7815436762329179,8972.303219215202,0
0.6707714517282987,6163.906970921559,0
0.6862256250379698,7047.327901556343,0
0.6831733321897129,6814.430695461043,0
0.7764121515995067,7798.9725797763285,0
1.1821470296441352,11007.87375426925,0
0.45076643624576057,4956.254018414492,0
0.779943692464021,8397.052311368507,0
0.5611497742255602,4852.810495317812,0
0.7635808983282757,6853.727868623151,0
0.9319478958108088,9117.98984022831,0
0.7767320642568093,7704.992772714838,0
0.6303177822857835,5877.902374932741,0
0.6097731912592548,6359.040477985356,0
0.8209951579953778,8504.40910905727,0
0.6964790120606685,6410.219831382932,0
0.8090685705732481,7763.6916244032955,0
0.7558458731791705,7527.731350591035,0
0.6037850045846181,6441.880811193892,0
1.101398496283801,10887.249157961869,0
0.8320870122501949,8489.682734378177,0
0.4594045395358549,4913.636614447343,0
0.7845407471251975,7811.822382409834,0
0.6672418868949017,6397.148808781686,0
0.9202831703108408,9312.78507716695,0
0.6772818893266517,6393.9441678938165,0
0.7337633432005765,7525.9202951782145,0
0.8174824465720183,8375.901515111185,0
0.9069206771627413,8923.234997114732,0
0.5265062115665055,5806.686199686831,0
0.6805299079372593,6777.831233283365,0
0.6593488657533959,6861.087842770848,0
0.6300985647308062,6255.033890369385,0
1.0423891970393573,10113.308793139138,0
0.8047357490232643,7962.349075128776,0
0.6023690126060589,5680.168105667177,0
0.954757458434503,8943.618170049811,0
1.0649099825693091,10779.463473671985,0
0.8849759473976014,9106.157205376538,0
0.5208579727647596,5099.579982711701,0
0.6367809541447806,6721.448192830288,0
0.9596052310275958,9584.445956030831,0
0.6158564467028981,6652.067137030709,0
0.7739402375261137,7936.372522494034,0
0.8842189550283599,8355.765553641475,0
0.6306524707765468,5964.226415991933,0
0.7348403250322414,7619.753482313749,0
0.3024923725390215,2881.0757959329976,0
0.5742663363490406,5778.47616191833,0
0.7349830974265453,7182.609643657527,0
0.5954575881574784,5995.211493680743,0
0.9853213259229131,10031.679251345518,0
0.5466266575054094,5639.08859010567,0
0.6655359799019629,7039.678583971145,0
0.7738223159535548,7514.071124683554,0
0.9526747581390744,9623.91364889976,0
0.5044151431984443,5353.15766888921,0
0.9585464841184498,9265.572305836708,0
0.7238711198219678,7698.6153822170945,0
0.5728270766400415,6109.473975883155,0
0.8221880762172444,7605.915022639282,0
0.7745405630742627,7536.0214887416605,0
0.6605535685552594,6162.198501266599,0
0.761364213244001,7639.776175616095,0
0.7303790589230226,6970.127134600912,0
0.8001755209046919,7726.921009599016,0
0.8285848704084233,8301.410358238647,0
0.9726503082997888,10013.854025242026,0
0.537732043630437,5786.529251053433,0
1.0577684901491733,10448.52024854337,0
0.4529096425868517,4278.6606604264725,0
0.7022601732914114,7272.296020201237,0
0.7995486209050989,8740.832264449537,0
0.7667312635607918,8261.436350042277,0
0.6470145262378525,6678.63159235872,0
0.7166611386918269,7041.817290148072,0
0.6314875024719838,6937.867129909468,0
0.6316110045663741,6525.468011621874,0
0.8461540245983958,8620.901738196773,0
0.8046714994324266,7606.729862623172,0
0.6151847704222246,6481.1120467785495,0
0.8550197459096763,8723.4263433224,0
0.7740106605287149,7980.235357220615,0
0.8828700301100778,8259.421639011029,0
0.8623927434886368,8478.408597402156,0
0.6693155973024296,5770.283250822566,0
0.7272165715401954,6877.3164903582565,0
0.9103405439180465,8725.31865451191,0
0.7921296203747485,8359.82244386528,0
0.7487755919985327,7581.191581070194,0
0.6888349709896396,7480.376222430462,0
0.9395256238002482,9430.972446805616,0
0.6439959399245706,6771.597724438322,0
0.8564325088196194,7701.788221936778,0
0.7174624427788526,7107.266149413654,0
0.7158251310318047,7168.949369131895,0
0.8853014979883962,9108.90655443163,0
0.9146417265477577,9029.544888727527,0
0.8786074378688722,8495.48422901638,0
0.9877236917813859,9333.986362042448,0
0.7958831885181604,7148.331957187449,0
0.8912091833709448,8824.986787197075,0
0.6811477036835847,6985.341836588056,0
0.8330973995657746,7898.567751125322,0
0.7138568184333729,7294.28888198633,0
0.7612229681484236,7772.741113175141,0
0.8766099766569632,8462.208218858596,0
0.6465400884981392,6802.245817861209,0
1.0161927496451313,10729.368091208946,0
0.6011708637284779,5897.924841916631,0
0.5927108829770427,5566.445733313612,0
0.9638960830616607,9158.614519766741,0
0.8768515237263503,8387.126656018438,0
0.8824847113280954,8444.15256707655,0
0.854565110250552,8599.211885138204,0
0.6815507929054506,7358.95712060498,0
0.5770257294997686,5992.64243151443,0
0.8461674937041319,7916.8958665494365,0
0.63719938334303,6198.960801407599,0
0.8929671163776586,8549.115924831167,0
0.7176060460519283,7048.833539017315,0
0.666865901642213,5953.667661386374,0
0.783041475430749,7095.166450341426,0
0.8679490969063756,8047.256281323522,0
0.6381242502932637,6610.47576178927,0
0.6265208697813932,6497.256242045308,0
0.7010196852066524,7727.263845005313,0
0.8180272691501931,8022.467739012212,0
0.619562565199246,7041.849796783946,0
0.698196093688677,6702.310041969784,0
0.7384201299834626,7995.479477147717,0
0.5328774226848174,5279.509905248217,0
0.5417322407734122,5573.623964203325,0
0.6396206157176121,6108.035830606092,0
0.697501480371552,6850.72682340716,0
0.7830103609260601,7888.107805415499,0
0.9658037510929607,9535.249363612373,0
0.8428274722380025,8683.147612917051,0
0.7154166939545653,7216.186888565432,0
0.7975728710067493,7615.478394513218,0
0.6356797521538164,5914.6738373301005,0
0.7356818955981896,7307.458033886797,0
0.6599626624274784,6996.709366268013,0
0.8265749364432473,7830.248784545811,0
0.6341884059032414,6072.352484258973,0
0.8137126968031532,7956.416408646364,0
0.9798108739738528,9813.003992748083,0
0.7055230480891174,7223.1186359953035,0
0.8058475268897419,8295.823330995347,0
0.8468816435340186,8245.73676915488,0
0.6934986279150323,6789.75258116167,0
0.738143033700549,8198.720166847375,0
0.7360526645586107,7330.966697753122,0
0.7533066593795807,7599.207497404022,0
0.7062144651721867,6097.316527651727,0
0.7190718952798965,7267.0797588322175,0
0.833978013357293,8556.45963348571,0
0.9116729958330024,9710.923310219992,0
0.8650450929430431,8965.642006775333,0
1.0749137198620324,10390.51043924409,0
0.6191144975477401,6420.726933289586,0
0.8719651689144836,9039.965344279783,0
0.7732978628861453,8004.908420773234,0
1.0838000125563887,10918.371045747741,0
0.620202751163664,6061.655456448192,0
0.603876957833635,6303.041920167434,0
0.6154678799693305,6734.4280239292875,0
0.3947732128914094,3955.2676965175087,0
0.6868671076048034,6487.111549182501,0
0.5470020927096244,6538.932472018142,0
0.7548604780084199,7900.799835048697,0
0.7608860575168895,7702.917356941461,0
1.064837294540917,10473.260550677664,0
0.9172440368403998,8944.696437109798,0
0.6865356472103774,6790.846307427825,0
0.5696522853373409,6025.473728290674,0
0.7842053511817187,8366.91545655594,0
0.5968038259040391,5688.415944366162,0
1.0239950039557133,10176.921161690387,0
0.9565093481740949,9272.710690316588,0
0.7802227991610401,6666.532195942013,0
0.4211013181260836,5260.62599610086,0
1.034792682831042,9506.754173382966,0
0.7187609968327023,7143.785367085637,0
0.9068976806890098,9213.559285185243,0
0.508204419366181,5133.712632036872,0
0.6457948886967056,6751.603699924984,0
0.7576589384980339,7240.70018054717,0
0.7672190795754168,7940.002891235603,0
0.6285433221491572,6886.636851592258,0
0.8868459877824019,8527.56609311513,0
0.5797869080960755,5879.131447161421,0
0.6797405434442808,7290.282565938284,0
0.7776439102277427,7650.786819982368,0
0.8687535369050255,8475.217444895316,0
0.8407406984364355,8565.83659964266,0
0.5956154625988412,5966.446905941738,0
0.4765408186898606,5112.059239226052,0
0.9538361032589181,9455.643338510226,0
0.8204839859973005,7837.686949121503,0
0.6892920106149159,6620.575841675077,0
1.002854445619734,9659.978515139963,0
0.7917589563412061,7608.516062587023,0
0.9469346822484703,9205.95369360479,0
0.7991918327589238,7530.48744458041,0
1.0586729867789586,10735.621041211569,0
1.0436018408842622,10069.679710717477,0
0.7070828685524077,7405.338683389604,0
0.8935443355507181,8793.6614092055,0
0.8304701944454039,8501.939418366263,0
0.9730002599253788,9397.790138436003,0
0.600970514928598,6136.809365636137,0
0.8493092752912577,8525.887244602305,0
0.9782364501705452,9056.624321334686,0
0.4907482470870934,5099.585763666033,0
0.590135942966392,5594.243856790317,0
0.4510033625308595,4558.45476488345,0
0.6892222088048716,6942.097765798205,0
0.8853331765634718,8598.850423726019,0
1.0066550324533008,9514.420512499351,0
0.8088826207564725,7478.638741368314,0
0.9458396621308984,9926.494709242364,0
0.5291130838999967,5792.777646142278,0
0.47763854231123876,4965.087115059222,0
0.7167072292881376,7747.612114828413,0
0.8311409123761928,8120.162831747145,0
0.7202685111428564,7373.541028963872,0
0.4573577743836804,4706.708154460323,0
0.7192544442666615,7453.723465145501,0
0.5737861158140801,5414.751430466177,0
0.8199664088758412,8598.623115125118,0
0.8230169727056846,7991.37841916375,0
0.4982651296000959,5692.373481274708,0
0.6605062679969782,6916.394255848083,0
0.5376893217729604,6130.166528294959,0
0.7858909091072006,7773.569760088698,0
0.9007291447139805,9017.14221919091,0
0.6344542985938177,5971.666245680178,0
0.8949654759528102,8423.067658752483,0
0.6222164146666771,6874.57764550512,0
0.6736725132002438,6638.346988233769,0
0.751272562768786,7330.528935454874,0
0.6402647171140755,5914.02072185742,0
0.6924232065092533,6526.4171580275215,0
0.5706820195824464,5810.675578461767,0
0.994640705189496,10137.435365728417,0
0.717238821775281,7708.112802530106,0
0.6154397519222277,6567.97876238428,0
0.7334864710983953,7937.983906593007,0
0.7644853098760652,7359.152972764123,0
0.6949133640044917,7475.141250206383,0
0.8363133222025287,8595.648743150512,0
0.8696850554441519,8514.846126795817,0
0.6402826012922286,6586.412468644679,0
0.690714914622547,6460.337876350052,0
0.6618545752763466,7197.679120827652,0
0.40450766522268927,3847.0904686486315,0
0.47173127569191464,5443.891835418842,0
0.9955862699985011,9814.906062835897,0
1.031345952759088,9791.648316461835,0
0.6923445999537516,7089.336233746862,0
0.8545163262044971,8368.159640856133,0
0.7943563089816544,8143.671863909237,0
1.2661494834628302,12440.189887804832,0
0.9317964524900776,8842.263888578149,0
0.7608621067637881,7244.487469273514,0
0.6399225725642596,6013.4859999872915,0
0.5042543313230045,4810.1965486363315,0
0.8014246876372059,7708.173449940023,0
0.5982865515859068,6451.027670943667,0
0.5092939257795698,5310.883655035577,0
0.6444852901936471,6221.216439914728,0
0.6098131822577623,6452.4945341803905,0
0.9494504728521176,10083.948025649684,0
0.9391206522319572,8844.79846144551,0
0.7741337953249061,7268.455765411665,0
0.9917546296979949,9772.057440729293,0
0.74200849174347,7583.209704663129,0
0.6007562570934211,5830.369015464523,0
0.9357959465452375,9570.635027901602,0
0.8279487554615855,8467.350269061777,0
0.5723981641272345,6332.934298510404,0
0.6859404808637554,7287.925063883196,0
0.6536286275229269,6407.189275581538,0
0.5406320963369423,5394.649341836854,0
0.8625188282894509,8871.957089161342,0
1.037280909464673,10582.32076622909,0
0.5433613988694366,5734.704097107183,0
0.892569732076529,8604.67319372898,0
0.6695502161326474,6310.763531240295,0
0.6521427408095641,6755.920146289907,0
0.6678885878566182,6666.914050536955,0
0.5363318498505274,6152.078252778771,0
0.7995990568903956,7650.353950600359,0
0.5886023703851085,6417.690187717233,0
0.7685166136409931,8106.247189060787,0
0.782242661968811,7761.816866270599,0
0.6736403883614417,7075.689708755419,0
0.5437103930140579,5865.84787396974,0
0.6492861519070329,6706.489922950392,0
0.9137828426216639,9009.849044975595,0
0.7569903644740361,8155.980609445759,0
0.5438517119538755,6171.036528214917,0
0.720161663559515,7788.147616638367,0
0.9216067753905149,8665.369094526604,0
0.5273718517142894,4997.277022526685,0
0.8205215279309661,8130.354447425624,0
0.6004229664949295,6049.731947097114,0
0.8689641009872602,8133.527861556933,0
0.5839885190821238,6277.050435363885,0
0.4658888195628419,5012.161386487763,0
0.5003197294742298,5038.06073070498,0
0.751758013267202,7468.322276208443,0
0.7962747068532419,7711.3866641915365,0
0.616001879285473,6274.886228045284,0
0.8019540957445518,8729.560121452181,0
0.470494891193742,5220.407050970051,0
0.7449973977120922,7522.110241980719,0
0.5551906338999144,5388.3531510797275,0
0.6215346112372928,6451.910989728008,0
0.7462467085184846,7960.558852752556,0
0.6326112186087375,6433.770050457117,0
0.6739919029109595,6615.666040008317,0
0.8356809241175768,8998.321109181807,0
0.694638424942108,6707.281882247485,0
0.8657839489399638,8601.10647549247,0
0.5889355485969737,5343.598913731803,0
0.8132563924548599,8314.471075876212,0
0.916749218895047,9504.801279462763,0
0.395345278236649,3635.764901992129,0
0.5779357383116862,6233.721044808133,0
0.8784192286561351,8338.873007839848,0
0.727525963609189,7193.615362116374,0
0.8106867527047945,7879.920830272563,0
0.7095697185438269,6549.980313999454,0
0.7080516758424196,7278.400007128799,0
0.6771558362901062,7328.691959985496,0
0.8905562808590752,8680.41800982148,0
0.7354083117575408,7823.733248865095,0
0.8728802159442085,8190.241223848194,0
0.6322238220856549,6670.316413361334,0
0.6656734398175062,6911.87670462274,0
0.6859294588936976,7082.3092606947475,0
0.7710503641054492,7430.098223067968,0
0.7022540524282667,6838.250698054458,0
0.7942212790276618,7359.507599818965,0
1.0635563388963343,10589.45950885397,0
0.8786183667753776,8805.252812951274,0
0.6821761286887187,6514.455904566071,0
0.9307473615368982,9686.78855566189,0
0.6696096554726372,6945.090101994599,0
0.5227119485814881,4273.008510816812,0
0.6124672335956919,6280.9464191235975,0
0.46654863547091247,4334.689474332753,0
0.7506410303961418,6726.895567234374,0
0.6777206397342611,7067.736464050347,0
1.0421057034391992,10374.865007720791,0
0.7809393258719268,8056.860334940645,0
0.7743322969487728,7303.229564756402,0
0.8301585652880601,8804.308618558929,0
0.48153284026037835,4298.050588717089,0
0.8048681202208972,7869.037379942047,0
0.8726339028054941,8710.48205937194,0
0.5430057416842843,5303.641318574828,0
0.9087348154600445,9093.912703696538,0
0.8150177140171975,7998.419658198687,0
0.7479450688030207,6931.787043801133,0
0.7761618451477452,8471.282623069854,0
1.0127361532164088,10610.48486515593,0
0.7548625918985641,7503.802048866061,0
0.7711875236725625,8088.899166233782,0
0.6959211227227767,6749.559841512953,0
0.6655255214659229,6342.178515210001,0
0.823991572596285,8527.079742871889,0
0.6184946148920799,5921.2450858073935,0
0.7006085538801557,7438.6300333227455,0
0.6937241297776042,6739.000815698043,0
0.8173893487459892,8085.441678762705,0
0.8293442836610625,8259.279862551564,0
0.8864360110710989,9092.214576694341,0
0.7218837447139379,7104.763125430251,0
0.7507616777927439,7176.069227874226,0
0.6383806204706454,5549.3442627425775,0
0.685233494413485,7044.768431177543,0
0.8311677539691601,7764.0404150732875,0
0.8661176402810454,8681.589658410296,0
0.6240409527839154,5961.815202200793,0
0.9128104632465366,9232.951087051328,0
0.9617455636363811,9821.376373693452,0
0.7937854526617378,7971.7882264951995,0
1.0052872465775207,10289.722185212877,0
0.6043804557428981,6388.235815274484,0
0.5782896419485466,5805.700759345196,0
0.5194028590466555,4837.750009108585,0
0.9048738103281125,9539.0874873576,0
0.8092349674273875,8338.036756691075,0
0.7556121991269862,7415.726634358959,0
0.8106322144693112,8166.8443352326685,0
0.531289287527643,5897.334001159644,0
1.1321677834748327,11013.944984102236,0
0.7828157651181804,7823.5063285048,0
0.7680542133438013,7586.695224131707,0
0.8309397353937404,8766.731536885405,0
0.8792402665154767,8726.915931270792,0
0.7954507473620877,7764.060762229988,0
0.6084993824717855,6474.609348777307,0
0.8113138607112135,8058.123869296447,0
1.0561844006726018,10300.58399127429,0
0.9681273061431322,9524.042526606887,0
1.0087605858400381,9851.043207950219,0
0.689796410580918,7225.779223108227,0
0.5702760192066062,5954.274154676453,0
0.7564001968550836,7428.689927607501,0
0.7791569002290212,7197.5699945683555,0
0.9379943830021967,9227.686590380345,0
0.517752163053233,5189.7139738982205,0
0.98042083624019,9688.80601067511,0
0.6677272006743613,6760.943723923433,0
0.7002441604062984,6851.948041313405,0
0.6056349054373774,5985.280207186854,0
0.4927572185741375,5162.530002350207,0
0.8861593874392297,9136.936483025558,0
0.7065479053367182,7533.966220662544,0
0.5615021753567656,5393.801025656363,0
0.5471495631737541,5323.998281630287,0
0.7305077099862898,7035.938674471128,0
0.9245262734745848,10099.40313969779,0
0.729474142416125,7001.481894082076,0
0.5022798321989659,5401.022119467999,0
0.7103519802408226,7224.462219234919,0
0.7277186355037643,7099.560983307472,0
0.3635092833849798,3274.1870914388173,0
0.7271937654277493,7322.184837126337,0
0.7047827468645063,6667.647145150474,0
0.7969824607801825,8591.466960059734,0
1.0482146786859243,10278.702400167505,0
0.9126071009205025,9227.543342539533,0
0.6147054320120149,7197.530767280667,0
0.5394687592252753,5917.3754341739395,0
1.0878363480720914,11337.963068745585,0
0.7390352598561,7598.561259654282,0
0.743646614714874,7240.0306545301855,0
0.7319307077043966,7347.06824019711,0
0.8330270747066137,7807.2213518884755,0
0.7141700167319545,7136.288666931614,0
0.6738419229613914,6811.537148854155,0
0.686553001626947,6547.985171948406,0
0.7503071301333613,7494.131176925666,0
0.6133464063113901,6708.17597466242,0
0.6219949945899336,6579.986844706336,0
0.7132561886775428,7839.8035763435055,0
0.7170942876059052,7256.340696062304,0
0.9986379089469642,9334.788242597406,0
0.3507715124300965,3762.3749170131073,0
0.8892304271680302,9442.72192272261,0
0.9241343206973309,9272.70293188215,0
0.4560357609012241,4437.244033922346,0
0.6416272042189972,6807.802272853321,0
0.6991616628867817,6553.162999659882,0
0.4792634468982774,5240.989404814791,0
0.6005486165495163,6225.2471607209645,0
0.5614639083831429,5763.166085530894,0
1.001355098101083,9936.622847134235,0
0.9090157786079978,8756.832556357744,0
0.9722992256660441,9405.131378165555,0
0.8709539405328586,8428.462699442824,0
0.5982135161820892,5915.127209684161,0
0.6346192577476126,6849.551730859827,0
0.8290651199661281,8710.139391074776,0
0.5117302873742944,5891.944273086774,0
0.8798630567307362,8618.118256924265,0
0.6452826177015997,7015.459043429261,0
0.7153958751130483,6996.518259010404,0
0.9076611614064355,8631.75914428851,0
0.8614191585813181,8063.732349427928,0
0.6733507985843401,7115.297030621956,0
0.9627036237757248,8959.375102109998,0
0.6776610471252867,5829.525041492652,0
0.8220896693882528,8535.075102279876,0
0.8066082783502846,8332.135057434156,0
0.6256286422681097,6994.3294603431605,0
0.847860800880666,7961.642361124721,0
0.548812583179188,5456.209387284496,0
0.8878587971166719,9120.820715125194,0
0.6936974427178645,7019.039260950954,0
0.6659822077790858,6779.547334703418,0
0.932371236234445,9156.243418411808,0
0.6425874821492845,6253.760083944067,0
0.6025407510298698,5401.928906330809,0
0.4996992778379678,4983.129805165204,0
0.806462128532774,8687.223422029649,0
0.5354011099828578,5351.599383860333,0
1.0202482172407512,10001.411854130154,0
0.46107084890104477,4132.260886503302,0
1.0069133500144098,9773.144807061548,0
0.8406526660917514,8134.769258980386,0
0.7424720483347697,7463.485266976924,0
0.6896550936604766,6710.680054926684,0
0.8171032500799833,7967.388778858723,0
0.7615200061166174,7625.070308572081,0
0.9385809355890362,8990.108335151292,0
0.7183596831423911,7830.06933185908,0
0.7717905424075207,7550.950386871689,0
0.7032819022927995,6825.680141304081,0
0.7671304273288657,7566.238041641983,0
0.7608029386487529,8134.468122169242,0
0.47663189725016897,5054.241997794414,0
0.5894119739877605,5267.787043690072,0
0.8837714463169165,8525.550767889506,0
0.7969214827132912,7787.677905431616,0
0.6785965372894938,7054.168803088964,0
0.7186585089713309,7801.843451623948,0
0.810065777857067,7540.983169252397,0
0.6465906619330745,6534.612576462127,0
0.6099137637923912,6230.629611322565,0
0.7354329856066153,7224.979149692169,0
0.549204093072816,5753.195007530213,0
0.7687496596633004,8237.437036080122,0
0.5411902893770199,4952.181320953831,0
0.8462714175452682,9358.360660397046,0
0.7619227083483401,8517.941512796528,0
0.8487939943178883,7970.653877191602,0
0.8397505570962225,9036.684125718413,0
0.9971140795158209,10011.397888409645,0
0.901195132572253,8490.538693951297,0
0.4936824518262834,4459.776750337317,0
0.6469841254003943,5600.769650516234,0
0.5896919298739849,6685.977275206015,0
0.777830921201261,7597.070537743879,0
0.8560283993909719,8097.995537160552,0
0.662836644034455,6598.865536763701,0
0.7876195584702209,8076.638952466545,0
0.5958702445109164,6554.523521528284,0
0.627250598315542,6780.643161430172,0
0.48006301845923116,5278.163195136624,0
0.6361221403469987,6330.336955373804,0
0.578183752423819,5501.62481944103,0
0.5778088864227,6138.501226238402,0
0.9172878927033299,9153.549063476701,0
0.6070039400703708,6051.604245664003,0
1.149230375348093,11276.572602231627,0
0.7946649612017261,8223.549518610524,0
0.7539250219310141,7974.606509038875,0
0.6650102927495368,6124.1681686655975,0
0.880070681866946,8729.134271635117,0
0.675193841819646,6783.957394766873,0
0.7783506034483921,7623.227242564076,0
1.1004776042079445,11617.886828127108,0
0.8027918802371042,7284.800816174884,0
0.97348182436504,9525.81936195104,0
0.7214179664289054,6532.060758619363,0
0.6580308986987077,7444.344080563855,0
1.0358587602291396,9978.640677385734,0
0.6787934894570408,6541.897367291341,0
1.0813901425855712,10177.920934296508,0
0.8744420530265631,8309.968626133032,0
0.6710080044521946,6612.776751615065,0
0.8888764837296429,8287.850972563865,0
0.9444910922932871,9076.030028235851,0
0.8556657461303564,8693.971038471434,0
0.5594606708171606,4899.279784905268,0
0.6445907740206053,6751.755781936082,0
0.7107518815844052,7103.011839795717,0
0.7490218334939428,7193.345579362228,0
0.8612202994535102,8582.559102367653,0
0.7258728187091118,7677.260605748871,0
0.5179779380645078,5480.636126728548,0
0.7276349179399224,7989.44112766653,0
0.8840363222773445,8252.531031552755,0
0.8187305659328595,8484.48507837694,0
0.9755510559616172,9063.910807753095,0
0.8863332661056249,8463.552873387507,0
0.8109106909630591,8298.982143685842,0
0.6858014769445486,7153.634962607279,0
0.48311028213728485,4777.906565190961,0
0.8518233849868814,8382.948569694343,0
0.6965778436417007,7572.263550902625,0
0.8301396844694442,7444.079284407562,0
0.5774568132578639,5709.449433261835,0
0.5686911732679141,5817.64250349138,0
0.8701511589211318,9036.198255771733,0
0.756283329624856,7377.767190544978,0
0.814202343821789,8568.585033862682,0
0.7205214490415301,7391.933715815078,0
0.8130390156379718,7839.857184156771,0
0.889543000341295,8612.179612902117,0
0.65470639603929,6814.907891009364,0
0.7767186237959948,7772.605366186792,0
0.6507641368475031,6654.656714775761,0
0.7364608742243226,6643.5087697959625,0
0.7222484864908465,7239.676657631072,0
0.787776522716845,7635.028506647226,0
0.6887995221260043,6660.54427935467,0
0.9783961324801754,9561.095980852231,0
0.6259597403098132,6165.037293378549,0
0.6722491835258494,6860.26380023214,0
0.7020506427987456,7189.81524149944,0
1.0276246387634382,9564.464674774606,0
0.7533389509766948,7714.280706786079,0
0.8847379700182149,9098.923659668226,0
0.5328775592969612,5396.674799845357,0
0.7903605797701576,8292.796257062182,0
0.8580170020554225,8502.432563554017,0
0.7959142957704047,7788.616425698326,0
1.0135305250505822,9246.822501408044,0
0.6584759378808357,6696.634342674619,0
0.9329959914367025,9771.475899241614,0
1.0168933223489438,11135.201988956185,0
0.7107551249440343,6679.349602343111,0
0.6939860113618358,7181.6995190750085,0
0.9766964988449851,9368.324265048923,0
0.9794224201254148,9642.294962348315,0
0.659510668905354,6663.352424545279,0
0.643151250103175,7254.707876993625,0
0.7208687345067907,7015.6717607585615,0
0.6044627012681439,5476.937455438422,0
0.5715216502361388,6408.437801054615,0
0.635853037292165,5933.7252213588035,0
0.6470358284249762,6112.616309757673,0
0.8196922052917714,7364.525701872165,0
0.7401650798609027,8125.480465565937,0
0.9278148167966006,9839.923738632142,0
0.5820778915936347,6388.600590703066,0
0.9017493629585519,9124.070582967306,0
0.7599025436054482,7050.05494638304,0
0.7381698539996041,7436.019696414366,0
0.82145848358169,8341.58561462153,0
0.5342142130484511,5682.230361526798,0
0.8560928994782441,8969.431469481227,0
0.7384019227139794,7953.403214326346,0
0.8685785124625114,8410.89649381356,0
0.8102455176030753,7809.116902800114,0
1.1919126261639381,11496.867023122557,0
0.6690644422013262,6763.273143981613,0
0.6536233218527854,7079.828825368828,0
0.6236584236080308,6931.912040042544,0
0.6703067111997442,6370.966463640114,0
0.6631472870048337,6321.951411186242,0
0.9229372767462084,9082.7672335686,0
0.9289880034536661,9441.968243318295,0
0.6440257854478219,6708.571032227864,0
0.6339051387558051,6138.105949924493,0
0.730541545307771,8621.64304273211,0
0.700808960677274,7052.601409994871,0
0.8048712430455239,8448.105407817458,0
0.7428457621464868,8195.449774506907,0
0.4452784931742829,5524.010752952193,0
0.9280616864986253,9731.11649015964,0
0.9721518070171485,9791.97344083817,0
0.6358094557212981,6537.223287281276,0
0.7798767181026373,6789.52323388033,0
0.7806573792476845,7970.099211116523,0
0.7896078380031786,8019.530842355487,0
0.8465696842851829,8500.41994078909,0
1.0673652601197032,10620.043756425357,0
0.7471084778739813,6992.07476934219,0
0.6000349608262756,6384.826188706261,0
0.6004041971372927,5343.097927374808,0
0.7067711477845828,6443.601380059859,0
0.7229324815124004,7641.791509735743,0
0.9494710183465562,9946.956840632476,0
0.6773083736593546,6667.324320911829,0
0.7743067797766003,7811.975080652574,0
0.7359410580700515,7372.511861576743,0
0.8886974612648859,9462.555809398718,0
1.1769758909426782,11146.320967050338,0
0.6915103379647122,6592.616760731052,0
0.6733269635225225,6623.857009632254,0
0.9422857757210515,9284.652397891368,0
0.9027742291980133,8424.348411957024,0
1.0317140133740286,10362.070066780763,0
0.79634624923928,8771.033298234961,0
0.6815564182969709,6946.098179749294,0
0.8907637451391092,8608.394382045095,0
0.9334122277554114,9497.326187692986,0
0.8274197295512548,8936.161583804129,0
0.8114731048586689,8257.5507834654,0
0.9071859418935131,9228.433586183455,0
0.9336160640980284,8996.467667041441,0
1.0097787800292084,9417.2298549263,0
0.8111029435552611,8352.129795058081,0
0.7098890442001582,7697.445303559575,0
0.8029247603183385,7557.553626798931,0
0.9855796138031305,9144.26809951017,0
0.6078399259922574,6065.81229746935,0
0.8015136148169462,8164.972315695503,0
0.6974211163503937,6938.516060042736,0
0.7298878941388588,7760.469029807539,0
0.9497764328818137,9551.92972712642,0
0.7900938515097591,7510.570632685041,0
0.6468939475113115,7408.19926823215,0
0.5497870653439576,5733.281538185285,0
0.8724554005651856,8578.72070012547,0
0.8292879413400976,8705.744635315215,0
1.1219552451646437,10714.945895375127,0
0.6820933906531718,6844.801361912795,0
0.7776522201812042,7768.073335962567,0
0.8184271024819721,7680.465566456194,0
0.9726587224433831,9753.069367164728,0
0.7031963460217134,7397.241842732621,0
0.7870839067976294,8020.853306729313,0
0.8656981081075372,8093.80649992395,0
0.7736841213292577,7776.440083232717,0
0.6237830024802387,6713.026431062257,0
0.7574347110790852,7661.452027555699,0
0.9253307356641034,9136.984548616274,0
0.566472573122377,5850.136676345567,0
0.8165670212630237,7975.882110189649,0
0.6523336270142325,6687.431152841452,0
0.876684070059047,9528.93560217567,0
0.5317059776815649,5116.2376037262775,0
0.6583133999556108,6469.117462108753,0
0.838059549686735,8082.223798474404,0
0.977240654786313,9818.216370594257,0
0.7689987904237072,7279.609975905845,0
0.6725761125033887,6432.05382062681,0
1.1095759559508858,10313.432010307271,0
0.5251459503044874,5247.165259325139,0
0.4192954594486724,4339.460472477482,0
0.8891321347594427,8293.042885384293,0
0.6799565690424684,6967.078624555626,0
0.6277639599695822,5716.291663927923,0
0.8099977943411203,8642.746332487755,0
0.6980730855101123,7720.207929410064,0
0.6873666620958376,6409.79921173269,0
0.5399811584503658,5493.8229546039165,0
0.8414894233689901,9022.42698844714,0
0.865517699340009,8400.838096223895,0
0.7758391986260313,7664.327136322749,0
1.0662130666546887,10379.731197175566,0
0.5794603516658012,5816.054754714655,0
0.5049273903405549,5443.7219293941735,0
0.6379300450113372,6551.217249600991,0
0.7164218840265609,7245.109097777412,0
0.818754765772158,8236.769701100142,0
0.685626083752806,7190.041677832801,0
0.7856759971371426,8031.8423331685435,0
0.5753152464435193,5451.584329733211,0
0.9560682179477482,9901.554559631437,0
0.636382999312713,7480.228317883408,0
0.9761555856344408,9301.79138344124,0
0.7910001293242647,7912.581750861402,0
0.8117123618929627,8351.94994311269,0
0.8430219701476163,8537.013639062467,0
0.7846766419642978,8037.807192269747,0
0.8378139768886065,8180.686111865118,0
0.9809788114612619,9610.003407066431,0
0.769217167645643,7480.112364631057,0
0.8928896616276181,8593.908791950324,0
0.7475850273377934,7275.947437611699,0
0.9225113433117195,9903.908865331994,0
0.6488913643542791,6406.842768757654,0
1.0035740564337232,10422.865243766984,0
0.7425445759549252,7336.92118516088,0
0.5383189784560395,5553.835547834849,0
0.7740247701681031,8104.22493113355,0
0.6417750878210908,6264.81308611443,0
0.9142791635598583,8819.372467829267,0
0.6301521648825408,7070.820514228426,0
0.6421952832788738,6844.042615558415,0
0.43299747190189103,4678.046557627634,0
0.7265381861447089,6979.240310596589,0
0.3114865207719606,3872.3971828755157,0
0.5688077317152712,4782.700565857304,0
0.9132933544538502,8867.079459184235,0
0.8119550394348393,8278.11055520321,0
0.7417179611796844,8054.828012449779,0
0.5859936785833451,6291.020935137511,0
0.7516613680308732,7357.124480058473,0
0.7380259693435838,7355.856892871267,0
0.5646919857497076,5938.305747244498,0
1.0547206459098668,9584.874495283848,0
0.897978020764133,8571.598291945116,0
0.7016148069552849,7223.456536754161,0
0.7222037522340636,7503.744098809278,0
0.7694999822859852,7563.839589083561,0
0.45291155251539883,4564.788205362537,0
0.7159159084995664,7222.131447334551,0
0.6231914930428761,6405.072624682176,0
0.5888522119698923,5939.303583932637,0
0.7707177595963145,7172.428109072899,0
1.0506230432178432,10434.602074224696,0
0.868269037141713,8404.705649878651,0
0.6746514374880993,6774.169213927434,0
0.8194913120450791,8471.91421545116,0
0.9717589491147791,9774.894613420798,0
0.8785326571087757,8894.812364117846,0
0.7825163002063185,7406.98045206699,0
0.6695991198766752,6437.095002801645,0
0.8613695217548383,8615.905663576714,0
0.7636110507527745,8453.920953808944,0
0.884635838749177,8745.985905402342,0
0.8287076240519979,8613.715191228435,0
0.9213221920487255,9008.71778284365,0
0.6521348931533634,6719.240933836375,0
0.9883673013803226,9779.170448304207,0
0.7507507781267945,7949.257923322686,0
1.1099777848197911,10364.631454389708,0
0.5786588509322741,6351.72326810333,0
1.042270052682524,10355.189973636145,0
0.7954798992400701,7825.241783719671,0
0.6249317087339006,6293.104970655154,0
0.6752003579626981,6610.380759923773,0
0.7136952016558351,7160.177742250755,0
0.7732796106306523,8335.130975846401,0
0.8546004415926856,8287.824292349685,0
0.5566685179479115,7134.512754279352,0
0.7326397130693495,7628.298584299653,0
1.13866516814347,10664.709323991216,0
0.9941655369593636,9928.173545531197,0
0.8121943694338708,7959.50864358324,0
0.7540967826981472,7624.089481348374,0
0.8017054185936621,7582.291581094711,0
0.7943806085143481,8755.02570989231,0
0.5699397639053133,6259.073512785963,0
0.7442505329063238,7240.548503364428,0
0.5669146359620422,4761.3246545922375,0
0.7734272263382661,7964.390909397438,0
0.8297191464284677,8721.929414702332,0
0.7228349016372597,6662.607066591919,0
1.0142323637436401,10085.408491718954,0
0.5842270647363663,5756.27229010344,0
0.5146311560612771,5313.781256647908,0
0.7854753738307233,7696.11116525287,0
0.8874007596450306,9051.79868521328,0
1.0023929070333097,10063.821128161782,0
0.7020365567660498,7018.181385356815,0
0.933691038216219,8940.874130020193,0
0.7334028715555693,7389.673927243715,0
0.7653155397565856,7250.023676475227,0
0.9091312399185846,8958.025577767241,0
0.8975684323923044,8296.791450115576,0
0.5457770318499813,4872.097805946182,0
0.9344021799123705,9849.603554930854,0
0.9993627929821736,9266.547208231836,0
0.669108826472393,6818.651890688139,0
0.7288866567384006,8062.520080659532,0
0.8422487935917766,7931.539062969219,0
0.8644589612679127,7794.926604855162,0
0.6287809568051896,6750.366995845718,0
0.6333885011281071,6386.024730581927,0
0.748591009962713,7465.674843277702,0
0.9160802846327178,9407.109202030104,0
0.8167076106897241,8274.962164814124,0
0.6717378426198896,6756.666966577614,0
0.8491143854224791,8597.75126649815,0
0.2875634095958245,3510.1540963467387,0
0.82083695609643,9560.161419624792,0
0.5450230562669445,4486.444097044396,0
0.7498060353734142,7174.544169733596,0
0.577057876494335,5870.524701267856,0
0.5567110319917709,5742.774322242672,0
0.9654179965339026,9131.142529014252,0
0.716064649654124,6444.7954961318665,0
0.8372683238537253,8136.6535803255665,0
0.7200866082924045,7241.42367942468,0
0.8285391848009579,7937.902754537712,0
0.7488443301837492,7351.55256009569,0
0.5648371136861401,5695.694420200212,0
0.8482316397916941,9022.290722376549,0
0.6884445422746694,6915.858329632966,0
0.48049558735147907,5298.942202909646,0
0.6454713154333701,6773.640545634378,0
0.9271120671166015,9737.044971175976,0
0.8767933035475118,8673.045107413733,0
0.7792250769130028,6934.956243815113,0
0.7721618752484469,6782.6624959261435,0
0.7701647853968225,7095.644281948793,0
1.0162255187751625,10830.146125137613,0
0.8358947487818587,7909.580572383133,0
0.7750396582953022,8401.316399866873,0
0.8880885071946715,9068.129480343352,0
0.7574180767699694,7906.399533820933,0
0.6893931139344611,6771.550877347441,0
0.7407553325400975,6844.022764459385,0
0.781131270017866,7421.42138343484,0
0.7691367524285495,7602.1130701616385,0
0.9270180728632794,8457.16822672648,0
0.7166771125846257,7911.937608827567,0
0.8857274300590159,8745.947310674232,0
0.7846173261418798,7197.25687949553,0
0.7064519465186199,7624.122518884837,0
0.4842052660637896,4998.084799946521,0
0.9087649695075812,8625.97871149378,0
0.7911756009096386,8125.38670163001,0
0.8824008077192083,8932.46625424481,0
0.274161721882786,3296.996190893168,0
1.1054340331727677,10886.016786434768,0
0.7338163827659763,7213.368140024966,0
0.9532623156489923,9386.05667944771,0
0.5327898163711096,6384.381788166096,0
0.8289609100749517,8432.415805062703,0
0.6135831797939231,6076.8543927383525,0
0.612091247802935,6446.258404915637,0
0.997857931571559,10374.898892606421,0
0.7053861174139308,7178.641380313332,0
0.8052786155427661,7985.536494901303,0
0.8757946285324327,9046.036783184516,0
0.8285713085945773,8221.591862135416,0
0.7910187413934501,8032.3529268619495,0
0.8365675132269996,8353.450992011663,0
1.0897481134489733,11274.494126493393,0
0.7313319874991623,7310.366498105276,0
0.8378669250814866,7679.282806724471,0
0.9538468277664913,8913.50532307341,0
0.8829105469818734,9348.122113484607,0
0.9396911785028245,9038.191816842696,0
0.7996091977255242,8593.462863865978,0
0.5862426585882623,5569.270761339452,0
1.0731637417836626,10114.85652242004,0
0.5676026370638934,5783.92582701808,0
0.750000550392753,8220.680910230516,0
0.6380602525294479,6596.877140635217,0
0.6800702116666802,7690.805562510934,0
0.7998544844503093,8285.307359113043,0
0.7845706365095686,8010.76198997305,0
0.8021546854867705,7901.122518068006,0
0.9922284525643271,9710.062292588495,0
0.8636086777102719,7762.931746407782,0
0.7296296610257774,6917.0318803784085,0
0.8757534393204377,8959.895483973467,0
0.8990598057476326,9172.274897221929,0
0.5533207507495633,5622.561156412541,0
0.8251391507478232,8494.643188667067,0
0.8652520482959297,8490.946061853196,0
0.6671486832180407,6829.288984877495,0
0.9802921925784024,9552.913486454741,0
0.6712873007295118,7095.218522096641,0
0.7947083081977939,7634.207380811501,0
0.723412461077341,7508.947656458797,0
0.736881514626141,7469.267510552967,0
0.5794432392514464,6209.778880326746,0
0.5472235784701238,5626.250873496152,0
0.9871145488611905,9775.89653312165,0
0.6282401713656728,6007.3332242393535,0
0.6120530373559312,6002.400643431501,0
0.43532900583591894,4500.580382273805,0
0.6430240551483971,6443.519197220008,0
0.47721679813223067,5696.983369541181,0
0.9800123613478758,10204.71073803177,0
0.9346527361952932,8859.92050394143,0
0.6389361336610837,6332.564264575697,0
1.021884463908213,11021.186114441865,0
0.9151905989337126,9003.017740415706,0
0.8037646012179491,6875.5406194283305,0
0.39078805780516734,3680.455338065723,0
1.0523523728766282,10922.30994834063,0
0.5139131753480544,5102.6704148635135,0
0.5597538194524655,5185.030500861201,0
0.9845474519971275,8938.117210226621,0
1.08199588820221,10602.885364749289,0
0.9541725654421909,9571.635034103885,0
0.8715635605232767,8197.549428299837,0
0.8327890814213242,8729.895950958464,0
0.8859133308925647,8663.034333986468,0
0.9126121897780681,8418.864211964426,0
0.8250356699337259,8023.373669946467,0
0.7076232880102707,7524.212182326297,0
0.7587209377160967,7250.21906790027,0
0.6481877120922499,6470.9533932648665,0
0.7202900058585496,6870.893923121926,0
0.5034927190879126,4669.110047067032,0
0.749410225406357,7697.690160226743,0
0.6302282190842291,6133.013086793752,0
0.5855234591265394,5791.774167177471,0
0.6758861568179747,7769.14578478983,0
0.9380014433957418,9689.17630114013,0
0.908386390576174,9072.142398926153,0
0.543493463643092,4993.054036302232,0
0.6103240722285722,6088.78710033763,0
0.8447705608003246,8809.815946740275,0
0.6972499063242031,5988.47266079001,0
0.7352175523005972,7195.188848497444,0
0.887277828950115,8323.742433926294,0
0.5656726195239801,6194.596697365062,0
0.7785981023977446,7755.480571042059,0
0.5694780107428213,5197.327915748258,0
0.6907292606279747,6326.383892660091,0
0.8173677884083682,7905.729564261947,0
0.5302947645368387,5476.234452190861,0
0.8236115044123696,7990.393740440278,0
0.6916449218353594,7428.898759687428,0
0.8783976138329072,8221.465726234417,0
0.8212577847804605,7725.062324279376,0
0.9470928055595743,9581.858593741777,0
0.8188755172960762,7967.992209210991,0
0.7001309762924287,6947.085368288238,0
0.7275609797796196,7522.7400622630075,0
0.8039655745937587,8865.592945715223,0
0.7804289661903392,7589.004749680782,0
0.7643872021037271,7445.443345529401,0
0.637965329839678,6729.431743225385,0
0.6793393628146495,6411.834500084815,0
0.5620680564549493,5728.674823297948,0
1.0471647147847523,9950.236556587075,0
0.5402537628087337,5920.211224697347,0
0.6049606260822311,6500.851736162478,0
0.664179004618384,6680.59954818669,0
0.8318111268491654,9222.73970715697,0
0.7462684239794636,6831.054024457708,0
0.9546557627870986,9626.767473162265,0
0.7683587495280111,6207.983282749116,0
0.8585434399145561,7709.0543722860575,0
0.6320920511631664,6086.297528151877,0
1.0609203606668727,10818.451018895654,0
0.5832662346393224,5725.2055468427025,0
0.8421784097175156,7931.303848507974,0
0.7944000973819427,8479.91237720262,0
0.7252469808735243,8238.956564035941,0
0.7207524581900467,7355.718136471708,0
0.6926625140831542,7524.1023175228875,0
0.8257742673018207,7929.724170522152,0
0.7900804260811686,7275.224523068971,0
0.853370767184831,8841.60088276618,0
1.0122826615609117,10938.491728224064,0
0.698176095579635,6434.911359235326,0
0.5079004571144025,5309.554704209061,0
0.6800554397673914,7567.453116751675,0
1.138428313472896,11344.738331517938,0
0.6513586311064814,6052.849656373796,0
0.9958350281225845,9660.714595093066,0
0.9616491145589117,10026.294556993424,0
0.6629722912620966,6897.996944831611,0
0.8274989339381174,8579.18377428415,0
0.9563950725381939,9964.771035271375,0
0.667373803433441,7333.090272337995,0
0.7578584986544477,7173.665386658365,0
0.6653251680513674,6599.765104397552,0
0.6073748027115384,5464.3777220128995,0
0.6486998644630084,6436.611092568746,0
0.5593763423211854,5834.492606838315,0
0.6940898341949493,7863.91746976078,0
0.6379306225314675,6178.993226678581,0
0.8526810138742912,7943.129333544731,0
0.46723719787646684,5375.532337159217,0
0.8077212961784,7998.561978960865,0
0.8828307897097013,8293.637350907942,0
0.4713357381781458,4558.854536057666,0
0.8062492103996138,8213.370979583537,0
0.9072894823179039,9152.018909706247,0
0.52189617090582,5634.707565788314,0
0.949400914206424,9777.759371830802,0
0.8742192378471181,7614.499004332997,0
0.6433768695200293,6647.883098719918,0
0.7197010952452071,7415.596676753071,0
0.8323466861644718,8657.025368123579,0
0.7495939857075506,7785.472525499853,0
0.8054632518021398,8237.292036336463,0
0.6092508292827271,6102.353478360069,0
0.7885024449039586,7867.276714208151,0
0.5657955187263785,5572.804937993678,0
0.709673679918304,7397.695034125352,0
0.6696988639229046,6365.2571668607125,0
0.6815028400638042,6337.3713387804555,0
0.9435561414042299,9154.711053458519,0
0.9811540375560246,9124.003330179177,0
0.8164595530190017,8454.744159508002,0
0.5483233008205597,5621.223774043275,0
0.6954169519878657,6758.042908628473,0
0.8929979227973827,9409.12380926346,0
0.8009173144508458,7631.304000185773,0
1.0807507337321087,10945.826128840143,0
0.7723717591471528,8018.0382259513935,0
0.7250628583940725,8092.193855087689,0
0.6814426745562284,7288.677535775248,0
0.8082279443887054,7452.84061916559,0
0.7105977397231453,7164.736602813095,0
0.8187746520999546,8732.163868626803,0
0.8514033370959236,9055.440722612526,0
0.6331347596573179,6312.724216772118,0
0.5192097580381257,5275.630528670486,0
0.47358585802279934,4609.183931114347,0
0.772325319892136,8158.633476859558,0
0.5742205329517867,5900.348956963009,0
0.5051440144055618,4611.409541510723,0
0.8405848675642554,7945.49185983882,0
1.1300955966029784,11034.292226638137,0
0.7803495081280322,7469.176337324571,0
0.9052363522190877,8964.083957780274,0
0.7270823582940996,7333.367444469207,0
0.7008005581511427,7642.392350388276,0
0.8668569430537099,8844.20845205852,0
0.7034270230341356,6917.724183254348,0
0.7542966983116219,7581.050613755422,0
0.7588387550635819,8123.850863978147,0
0.6125163336012475,6463.63008048712,0
0.8515041271102713,9022.204620855686,0
0.6727808598255094,7057.398016754615,0
0.5979111257404457,6302.563053910528,0
0.7838354769632301,8207.448516084658,0
0.6196534635920259,6132.179406237803,0
0.7503269973317918,7408.3612707785305,0
0.6669836749140172,7179.48531289625,0
0.9227174730714589,9674.543297806687,0
0.8229089465300325,7939.366499852427,0
0.7139136889122162,7498.751363270792,0
0.8638088645996405,8372.243883115621,0
0.9158580921029118,9185.901836202374,0
0.8104279746354466,8356.280757898247,0
0.7105479268564624,7550.402447318731,0
0.4821024161723908,5784.545449635238,0
0.5968841201838136,5982.238873590081,0
0.7086214312924127,7012.200799718841,0
0.6452457415039964,6395.811647948074,0
0.6704836778586306,7519.34545916854,0
0.754110922976958,7770.745136555706,0
0.8513467735179044,8045.273235985413,0
0.7409321606314928,7401.84457855349,0
0.8605243146012453,8258.562912044601,0
0.7487604525693875,7527.580890894047,0
0.5071036968397648,4691.170247630552,0
0.5764857991412631,6257.343536941504,0
0.7565269646194988,7245.771526856555,0
0.5880668967092492,5629.284036578807,0
0.8452485850176417,8699.684787527813,0
0.9805241691092572,9982.694026987992,0
0.9238073559858557,9342.61485552765,0
0.7592184353507214,6853.993885788677,0
0.9529275306152172,9804.889226535935,0
0.7146969673326192,7862.617878786701,0
0.6680213204153366,6443.466717643266,0
0.6997106660157041,6630.2698943521955,0
0.7015353034719384,6962.95707290866,0
0.7302874692892956,6873.563916162247,0
0.7765675945781787,7574.148143010568,0
0.7540897858559876,7711.2231134940685,0
0.7188538477943289,7782.967345466388,0
0.835304166554795,8066.127554856422,0
0.8880474605663494,9479.084123938148,0
0.942936184640655,8763.064959386063,0
0.5429782125441829,5424.404285856352,0
0.3941746349524197,3669.4494687714578,0
0.9031454928298251,8971.884832616766,0
0.5681600729183343,5451.112603596365,0
0.6783313148790536,7291.176943649216,0
0.5319179793343572,5231.313437324209,0
0.5052826429250725,4513.064280938457,0
0.9011869499163806,8395.61019190891,0
0.8580541915805711,8230.025069674723,0
0.6672467788376274,6529.118327780479,0
0.3852531386770043,3602.5683935753054,0
0.6272573421459335,6515.005300098696,0
0.839073137459808,7949.393727565065,0
0.4928280434050989,5335.949086869526,0
0.7774875865546769,7976.898870824695,0
0.7607357263461049,7285.345349989545,0
0.8014251015388353,8253.925610164159,0
0.7504968371084206,7533.118357955821,0
0.5995211502912,5556.120638302211,0
0.9137967447068337,9323.19961056024,0
0.7173496698169526,7449.149189625244,0
0.746424868678058,7662.371832198279,0
0.6939871165058433,5925.944786102058,0
0.6619107573472262,6584.737013508706,0
0.6722378350676933,6177.117038477985,0
0.6670544486907206,7406.4356474281585,0
0.9755694605084841,10098.53280987559,0
0.5160512821181419,5500.009212777717,0
0.4585658827722542,5308.024088732135,0
0.9263022195422095,9558.928179394272,0
0.7207308906253219,7142.020466937595,0
0.6779723483156727,6823.311994362365,0
0.9327925826035197,9020.49480647459,0
0.6248757221045013,6338.10929720139,0
1.0191471704671875,10105.143351070345,0
0.8703168324322971,8329.252836764656,0
0.6815350930179455,6839.5654049217,0
0.9896879396247957,10556.7729191805,0
0.6040153464044342,6645.634466067241,0
0.855328602297241,8465.93001430583,0
0.8077695486191679,7524.263162930092,0
0.8963970123469567,9513.93589149458,0
0.9945090447201271,9871.959531399658,0
0.7711947457714126,7651.557786740418,0
0.6568700248420153,6235.275750647674,0
0.8121685055657877,8034.049319336799,0
0.6740612568427686,6563.72031706815,0
1.0385132581931786,10823.88478579613,0
0.6654696062991576,7707.036598525372,0
0.6667234208596885,7036.934692241266,0
0.7939299130881151,7712.7029219122205,0
0.5921016964187472,5170.584461330718,0
0.609507158637022,6236.064826064834,0
0.942179619499223,9482.30370973387,0
0.6586443487988097,6656.813386577945,0
0.573096800764131,5893.244438308607,0
0.8122682181984693,8424.390348738636,0
0.9651480078929059,9457.308591472061,0
0.8079609152303899,8902.461702988941,0
0.9554518654036446,9191.776749638213,0
0.6382419446516464,6377.5716121525365,0
0.561079004259069,5105.633348802361,0
0.9634083994287378,9783.132137467579,0
0.7128831212597782,7067.295720906658,0
0.7208756559292454,7265.55643038109,0
0.893928562043001,9763.069584638271,0
0.7994589671504385,8315.314911689633,0
0.8567112759683673,8604.029096085034,0
1.0543730106797375,10395.646113343511,0
0.6091896625353782,6618.59102892211,0
0.8735760267132572,8732.05611368505,0
0.7552374643615308,7204.075287407866,0
0.7965132414987329,7862.533543035053,0
1.0017111097761795,9501.268099934607,0
0.8412255531205702,8229.468054827872,0
0.8900938558918746,8314.39796819334,0
0.9298021706791686,9332.469287831893,0
0.6802269252558445,6651.053878732885,0
0.5689311822099687,6422.874532120644,0
0.562329184669587,5952.402299024408,0
0.4375541709799017,4756.234946657916,0
1.0208179222677098,10497.960459904258,0
0.5865888145376403,5578.738534064786,0
0.6797933992693389,6924.619699378169,0
0.7249191096943962,6826.418559433196,0
0.8108833822727375,8056.672877297782,0
0.9251549935074295,9018.990223251885,0
0.8621003690485788,8677.719927208575,0
0.6842270467998647,6751.210901798149,0
0.6931442669122252,6944.629017693259,0
0.7798702824227618,7959.93417556791,0
0.7464381671363755,7260.675833992104,0
0.9766437942360805,9621.393408974616,0
0.8205871981986301,8195.685733661405,0
0.8374192253875277,8745.500107171838,0
0.8604161760725535,7907.5677735552235,0
0.9486551660282331,9527.301398568337,0
0.7483643369364701,7842.2682132337695,0
0.49231359769195576,5698.097607609699,0
0.7698793600432722,8016.98807179001,0
0.6915617588974082,6178.420162999185,0
0.6790662534836558,6813.8875686387555,0
0.8673113317449725,8363.027963049337,0
0.9465645308034526,9363.847698236917,0
0.681358134173701,7749.428762143883,0
0.8001521662740342,8115.6622936709655,0
0.9631932336354345,10437.56990037078,0
0.8153813196232361,7891.900615007552,0
1.1367170178535064,11264.282183712368,0
0.8662321146734199,8310.58109906557,0
0.4797342266292173,4941.988535773994,0
0.8985586763393872,8833.183735455394,0
0.8165706688721308,7778.330787036422,0
0.9621310631581409,9436.336654159952,0
0.8489342638493342,8831.680358312611,0
0.7190513738399843,7244.274249823836,0
0.6318186091807293,5849.7550165397715,0
0.7085789210385363,7285.088619514163,0
0.6152872587360878,6415.391439991045,0
0.7104299110537236,6467.26271697293,0
0.846357236048571,8221.787272617797,0
1.0033041975233545,10008.911134951568,0
0.7547779399886686,7785.56293728641,0
0.6262212222223209,5652.227285624892,0
0.8578643122148072,8217.479333833346,0
0.9433178092347964,9651.87435135843,0
0.6229735025446885,6665.869281374891,0
0.7170700646266136,7424.019944165244,0
0.7515712843022393,7754.9274615037975,0
0.6336472858663627,6129.721012597629,0
0.8814673657073387,8439.404118291592,0
0.7704673886827619,7803.660295449106,0
0.8584995375764243,8113.47422138364,0
0.6083445523871591,6392.047883053291,0
0.6283737447153912,7036.560124949506,0
0.8995365544872305,8287.94929386412,0
0.7500199234773092,7002.846127263536,0
1.0961138233338525,10119.795271291154,0
0.646746359476477,6966.537479146183,0
0.779133184593718,7686.204592669616,0
0.8269577844804149,8675.502345427203,0
0.5061843677099602,5277.249400596282,0
0.44740613668248613,4839.227782611995,0
0.5663139097502873,5448.512417664921,0
0.9402992303125582,9757.338319085895,0
0.6002695141385366,6951.532350405965,0
1.1232013434657862,11509.335970658747,0
0.6106290820834975,6452.760549553999,0
0.82617400922799,7695.047719797656,0
0.9446155496367746,9855.150139334413,0
1.0506176012834647,10382.65152462345,0
0.9873814870759849,10707.696495460188,0
0.9083693383963584,9456.646567540573,0
0.9480894590965397,9143.351801230287,0
0.8410178120367793,8593.81734471329,0
0.8519219014632122,8486.623371507341,0
0.6747922342322515,6859.787166325639,0
0.6396466974708875,6133.5725848425,0
0.7888584159923828,7306.751123354995,0
0.7207239381508395,7351.146293049884,0
0.7022860786844798,7063.332638448884,0
0.7953156435983371,8642.183868460275,0
0.8673660410379781,8937.118617610275,0
0.7723129573418911,7694.641094658072,0
1.0118595000839434,9743.580505196349,0
0.5995938778591402,5562.276149572664,0
0.6806655863161841,6960.98678209144,0
0.599559694855251,6409.001343201101,0
0.4480893389681536,4716.166441544271,0
0.7344251327172365,7378.245446909498,0
0.7450244012984188,7452.5990601550575,0
0.9563955497736788,9727.07927163033,0
0.8812093243071963,8558.813363213138,0
0.5977202271749216,5934.802410040904,0
1.0197974232107128,10645.810641908576,0
1.0245800487216095,9347.693288633318,0
0.7364309615241647,8841.29107750806,0
0.6360170976505218,7230.676169943425,0
0.6112791585082671,6018.105710797137,0
0.6574153912931712,6761.800240641485,0
0.9104904261470672,8844.54521474474,0
1.0150540106073358,10128.591002022682,0
0.9815723364613032,9638.944030575485,0
0.7365503599775989,6845.689871403024,0
0.5871191473822789,5715.340775854445,0
0.7726361210571435,7748.714780877705,0
0.45017367713195006,5103.736624131059,0
0.7513359035582023,7967.189900950201,0
0.6112777513632774,7694.427460245358,0
0.6752399857781106,6565.783051129797,0
0.5673976736315963,5077.82868942482,0
0.8736916292518818,8162.537575132379,0
0.667189630591644,6888.250061718535,0
0.5863621080513732,5297.166420361344,0
0.3258914661977287,2902.983622241964,0
0.7391872149139893,7437.258277933853,0
1.061027641565962,10468.652939206515,0
0.9562202032427305,10037.057188629267,0
0.7086992251940315,6544.046124267746,0
0.6913630974918916,6357.248590919284,0
0.8337882639373125,8537.759324681527,0
0.6257336777362046,5878.194881458315,0
0.8500288371177481,7764.095175239247,0
0.8908202906143913,8944.594929703208,0
0.9268885802633636,9542.61923694386,0
0.7378963402230436,7604.58081393343,0
0.7230816147227103,7004.480998681388,0
0.6556309804399392,5878.004991662287,0
0.6545085893994604,6286.312766812752,0
0.6940401661098127,7227.306888762442,0
0.8214663855147328,8123.968620965234,0
0.9393561444403677,9166.013726477673,0
0.6027057352077625,5948.478155977833,0
1.0051295053940477,9910.971863698836,0
0.6798998172217979,6873.989589606684,0
0.7727156559053591,7639.096122649514,0
0.623437432346658,6284.19114037399,0
0.33413760024392025,3700.8452504124853,0
0.9242611296332017,8704.087553151734,0
0.8521646324231396,8316.143805483338,0
0.6887316064868411,7086.094452289373,0
0.7694238298074825,7445.951397705217,0
0.8313498903421584,8431.168472736204,0
0.4913386750342951,5284.192430876769,0
0.6887405842025659,7044.052394561117,0
0.9061746955496476,8764.662516140957,0
0.5356529966360039,5722.701418662141,0
0.7395092060148946,8220.356860615508,0
0.5425998523037431,5339.594753859553,0
0.7947632493506819,7901.993331085682,0
0.7546216383568979,7486.556588379453,0
0.48608947599323865,4792.775582298855,0
0.8738576694026022,9737.896766270835,0
0.6524809861094873,6689.212293218715,0
0.60490712737963,6717.416611138744,0
0.7964837011819597,7813.343191179039,0
0.9105762264366843,9333.070742883394,0
0.6392698202547893,5884.372185141876,0
0.7111891721741763,7769.104735889308,0
0.8647654771966995,7900.116108085648,0
0.8689015074890144,8031.039772999759,0
0.7901339785401921,7606.520209018124,0
0.6784843638546542,6658.363546251554,0
0.6538965851921812,6554.200016258827,0
0.7319456767294298,7992.351315585625,0
0.5675104995277745,5611.205667538968,0
0.3311775300904125,3376.3173962623364,0
0.8587398796122397,8345.116702936655,0
0.9181555376031307,8541.946924685519,0
0.43285420748207437,3877.5478405009185,0
0.5849296268906359,5869.37119851019,0
0.8280018287937416,8578.330471233237,0
1.0913949443908593,10340.487334386546,0
0.7373496832379702,7511.416036381215,0
0.6405579794991713,6270.808687366374,0
0.6404402122470971,7320.323575019768,0
0.9425920976824326,9518.956222384692,0
0.6715106767621717,6424.004590525118,0
0.6587400498913264,6258.552674898204,0
0.6648237956943872,7183.093283294974,0
0.5927395338179731,5986.627160388054,0
0.7434860421948732,7475.804430335436,0
1.038915031026984,10053.704401535535,0
0.7668214941762029,7955.913975789453,0
0.7041260040246309,6838.422960637275,0
0.7538746816122199,7508.582363667177,0
0.5442498316476104,5084.717997837684,0
0.9387819184980407,8749.090774928469,0
0.6740653453122326,7415.211274862416,0
0.7644749934933439,7575.303483455829,0
1.2184176477812214,11953.712286463493,0
0.7805434748073804,8003.326532432638,0
0.5985922006849727,6789.767857215948,0
0.6767519887081223,6886.209341839615,0
0.9092297081469041,8975.601767934437,0
0.7424722954135079,7546.226245214516,0
0.5566489786731537,5383.959538475307,0
0.9132883769348368,9145.004184990778,0
0.6365826903284099,6429.9167028082975,0
1.08377137365551,10475.277023812805,0
0.8426420732526081,8832.998333162595,0
0.6417043184570069,6540.273482592863,0
0.9835736477741983,9324.96440486568,0
0.7882884209973443,7889.389010165757,0
0.9637394765129821,8792.935440586083,0
0.8452966495005892,8285.061465055036,0
0.6165019665881474,6286.080936628395,0
0.734102040036114,6756.516848041153,0
0.9500179353721533,8922.897087864172,0
0.7160045907817086,7135.494023537834,0
0.6813993465301785,6728.350772365979,0
0.6040646682154656,6463.970662160123,0
0.8186430122074551,7975.320377530853,0
1.0819250486241812,10417.309518248994,0
0.6021667916052451,6008.6345913162,0
0.7795435034171161,7552.286871295602,0
1.010354447876369,9683.70131437533,0
0.7796835595350633,7426.000672229891,0
0.7678702937427888,7960.479254613113,0
0.5552713909836899,6229.081493595578,0
0.749678934609455,8321.169086989295,0
0.7565188894913261,7491.073592746599,0
0.8937173435924861,8872.92881569771,0
0.9168228288349497,9364.383786290162,0
1.1654594200946766,11423.81915547486,0
0.8649561921917327,8595.050285060664,0
0.8266921353027665,8220.744101239174,0
0.7870804869469209,7830.1866129576265,0
0.7081888368132668,6666.660334415317,0
0.7879970221704553,8363.658142610075,0
0.6853756042344678,7168.095371529484,0
0.8203819665226707,7631.004056126193,0
0.955168065827576,9557.704731065278,0
0.5899727128616645,5687.967442390033,0
0.9145348936127453,9420.888455187776,0
0.9303157494275819,9181.430252153967,0
0.7348602196274958,7278.7303111059655,0
0.45462255696579235,4366.108541408218,0
0.5911670546396162,6796.03496175477,0
0.9335944247613078,9466.80075512854,0
0.7553101917722472,7592.690481274187,0
0.6080388633804507,5995.413269867723,0
0.6561177341334021,6736.400427968818,0
0.9037324213497727,8778.025489826488,0
0.7769831957515826,8282.288768131593,0
0.63560872385316,6804.287802629171,0
0.6903108685084622,6796.098683538643,0
0.6502079160020093,6961.317744656607,0
0.624752815519317,6066.560522554502,0
0.9458145375012106,9891.901717767782,0
0.7003935930624205,6951.848562295247,0
0.9326291386221409,9153.01810269188,0
0.9801041812130391,9683.354185688419,0
0.9320659565443783,8936.099998344222,0
0.6558120304556604,6853.598159031298,0
0.7990968910398468,8184.270804398857,0
0.7253598242669873,7427.596532236478,0
0.62809251108422,5938.516157766324,0
0.7826654085868716,7706.922514598648,0
0.5824392839681295,6250.927754735341,0
0.9490757091122113,9055.556076639434,0
0.7730569269659081,6699.349053799534,0
0.7026933592407789,7905.1395443120455,0
0.7739052611404929,7997.103929232349,0
0.7354132720140653,7215.815677956199,0
0.8384433192275967,8291.497288306477,0
0.7219204391626571,6835.356129194122,0
0.9488952715123854,8819.21467903404,0
0.4659286715243822,5418.604206121619,0
0.6872857704451645,7738.651317673886,0
1.0056908878513489,10619.46660793757,0
0.620277422298199,5995.062968404573,0
0.576717032189726,6480.273113484008,0
0.7454334308666847,8484.493981463569,0
0.7649517196105873,7961.64474487316,0
0.8219788919259197,8342.732437103035,0
0.8032333912561717,7882.534648325581,0
0.7824179441589592,8633.106039476534,0
0.9183590368309601,9284.865772014771,0
0.8250610439517996,7937.597505842115,0
0.7100158539506258,7188.431101671956,0
0.8505346687188198,8719.084901355696,0
0.9617910727166129,10183.991117845742,0
0.7269272510832213,7389.561866230701,0
0.5680668174919786,6212.476778140241,0
0.9484103292268384,8946.41709142416,0
0.7166826853505148,7290.971115580573,0
0.470850597503817,4301.189356307428,0
0.8271933245679346,8611.906214617042,0
0.6827759470539716,6521.177081250406,0
0.7197434549980316,7337.191156171204,0
0.8629175474465182,8158.2984392342605,0
0.7494224708089103,7914.496319907022,0
0.8492235645858777,8391.895179871291,0
0.6654432243269721,6977.2040211683725,0
0.7509317786357746,8102.470742030821,0
0.7163451930163535,6788.646024025437,0
0.8534721307615059,8534.78700712181,0
0.8516514987174724,8647.645100336726,0
0.5971597973881436,6228.034057361382,0
0.9145807667287871,9128.65881278791,0
0.7362560171280818,6612.713735610716,0
0.9109219722770961,8634.13427019843,0
0.8033874885536381,8072.687951274171,0
1.0366246825894545,10043.588018023518,0
0.6487519378323563,7095.1795574019625,0
0.7871850600358544,6932.91091355075,0
0.7474889326150206,7200.655699478101,0
0.715805401491133,6877.540675569071,0
0.8076435814763907,8782.014211210351,0
0.4698896877424859,5077.436455333317,0
0.6282005846576836,5857.724013041792,0
0.6184693841743759,5716.010130123618,0
0.9116337086330146,9240.831353078207,0
1.0069411145813372,9898.324215937024,0
0.6787089226979693,7393.64473364614,0
0.7490905635065527,7149.193597600225,0
0.7406387218355421,7612.33410319744,0
0.94292099359433,9334.339402300358,0
0.6291146772242584,5834.918980872562,0
0.7516414895017803,7856.23022527148,0
0.9095867196559372,9200.942174469614,0
0.8303710325126553,8603.941633608169,0
0.7992227337285085,7758.369630247089,0
0.8653185940915056,9009.905380294093,0
0.38970186137153784,3887.4181662214505,0
0.8874912992371398,8743.7978356162,0
0.6396498921869993,6395.4295614578205,0
0.43742069585990423,4630.25396453809,0
0.8217087166013752,8458.113791644926,0
1.011820719782088,9358.28039173529,0
0.706201415948287,7511.372578326233,0
0.970232644329176,8996.17181355461,0
0.9973656420328908,10021.961539788383,0
0.9254530863041671,9421.02491968006,0
1.027287777365373,9833.981833207808,0
0.8690751385737824,8905.589802781502,0
0.7493467684949153,7563.803002241694,0
0.5026592483580788,5014.864266839475,0
0.7098949136000513,7114.878854229115,0
0.6528281933757553,6273.734533569301,0
1.0806142872348916,10550.249050902832,0
0.642976486038344,7123.196982510112,0
0.7349904223132351,7561.200795395517,0
0.8389482953724277,8496.28412498207,0
0.714071025037072,7388.211155958703,0
1.0030881666111804,9691.422989094519,0
0.6274266067360015,6172.607044817091,0
0.7561408475271825,7497.835155920721,0
0.6040340213853506,6658.601762022549,0
0.5356575639497697,5523.207553065752,0
0.6116592260913507,6682.596181003512,0
0.7140462481770179,7551.742349851648,0
0.6766109575732541,6867.283446902574,0
0.6402100576091024,6446.412270858955,0
0.6002513353457675,5599.429090455878,0
0.6799455585947077,7404.540823919486,0
0.5223532695272288,5522.73893480618,0
0.8843779075680173,8764.249934592377,0
0.7162656774247973,7500.100374705549,0
0.5420973151500598,5214.245946028617,0
0.676768945797579,6890.693423134348,0
0.6649798260567956,6615.274996004268,0
0.8752274283103709,7897.75157503966,0
0.9828233813426492,9350.98110967479,0
0.45296185711047515,4751.196903756747,0
0.7844485522510541,7653.1056974466255,0
0.7129727897247492,7318.714509165073,0
0.8448227753775165,8884.972895454468,0
0.8446362620882815,8002.409103542305,0
0.5803560617805542,6377.448113252152,0
0.6331643099077146,6739.734419658871,0
0.6191784647940668,6205.968715353039,0
0.9164474445652672,9256.21992840696,0
0.6995994454151055,7297.75926507555,0
1.0224610710497355,10779.980087895581,0
0.7006152336689067,7411.892091805178,0
0.6042558446975833,6447.159528276204,0
0.535175246614953,5096.099372489164,0
0.44175293777940333,4894.638036971226,0
0.45320019767563685,4892.195724187319,0
0.742727078322347,8333.668494337517,0
0.8525680574186546,8526.557795775303,0
0.5283810721041727,5325.073235991209,0
0.8877097651410172,8564.47166995621,0
0.662676896825156,6816.491076566391,0
0.6946231705044893,7962.006797581125,0
1.000990506208469,10036.952022254683,0
0.9273847785178524,8644.837152871543,0
0.7103531101704444,6967.185277079521,0
0.6605781950774839,6072.824434275871,0
0.411199945867723,4151.589331108321,0
0.6843796031616157,6727.025788278432,0
0.7253774450959749,6799.102013993807,0
0.6050726311639366,6150.414537204992,0
0.7187919237907445,7044.653874375853,0
0.7300205792421606,7423.027526947939,0
0.7673400283138062,6760.769353914138,0
0.6449540011673351,6415.185242533037,0
0.7300579848334906,8055.128338257934,0
0.8638186138459037,8215.875822847069,0
0.6021894045958212,5624.7290744359125,0
0.9886109252467459,9819.828104495267,0
0.7698348159527871,7598.378654287345,0
0.7432339661040132,7549.083730625089,0
0.8656623539217287,8969.271466515354,0
0.7380370490502014,8014.1370218201755,0
0.9242761753744518,9066.235452328385,0
0.7669767548592787,7770.010506369478,0
0.6434469638188961,6706.8236351636115,0
0.7852441842273323,8085.6135433300515,0
0.5281623956566369,5888.376489553212,0
0.7882526093497623,7525.922434836519,0
0.7206179145986149,7475.774790905106,0
0.7113522373633595,7024.452414048199,0
0.7709182722834556,6877.7673128483975,0
0.4539689165392526,4876.8873454692175,0
0.741500296452881,6376.434842050654,0
0.7841521924464069,7660.704644668155,0
0.7557899238014646,7806.385013885909,0
0.5944911577552662,6023.799891783673,0
0.9590945397516526,9341.945946577402,0
0.5464089387799411,6254.980022734244,0
0.821541839892179,9048.379214747138,0
0.7929876731295985,8287.784505957925,0
0.6013499135758539,6877.347303111148,0
1.020766825455126,10209.805169213909,0
0.588126404645215,5722.35452136882,0
0.8464337624857464,8697.385467344984,0
0.9009367670275695,9088.062741844335,0
0.6243747478964384,6627.546307013146,0
0.9609345846916916,9550.237313240168,0
0.723330157599044,7233.852728938378,0
0.8032063532911918,7874.537205209917,0
0.8100212919035392,8024.681288574617,0
0.7475030009571426,7481.057350600127,0
0.8265770259759282,8895.93798308577,0
0.8897860489809437,8713.80194605658,0
0.5563270593390713,4669.208409819319,0
0.9242958976355029,9334.127753788865,0
0.5409830935319757,5125.293482723434,0
0.8877809820912477,9538.581767660533,0
0.8754902987521643,9121.91355093496,0
0.5729185328670625,5954.71789035483,0
0.7041214694373916,6772.568056572242,0
0.5653903748249627,5646.649588421276,0
0.6975006956408555,7042.3552818514245,0
0.6792009281246111,6621.454178380854,0
0.8537834682294517,8940.177810985559,0
0.9692511907727069,9019.43706859649,0
0.948229048498686,9540.760070104807,0
0.5906292227618232,6421.122381062536,0
0.773772625455786,7009.2911463107675,0
0.5123266647072615,5250.147243616308,0
0.5933525782041289,6331.408298261995,0
0.9011084895538486,8754.198217809846,0
0.9909555170951622,9805.470808823045,0
0.5382122199434745,5495.3804480917,0
0.6686751076665888,6602.5944768548825,0
0.728625426673892,7494.969701519148,0
0.795116794823273,8299.356692875122,0
0.6055582372565038,5902.33456691799,0
0.7636313109949638,8129.129103744544,0
0.6796830431440796,6726.127440886721,0
0.7510978601269284,7667.631299225937,0
0.8401909232115127,8390.389995641228,0
0.8161842723121623,7627.705846339395,0
0.6760187475075434,6914.438401413164,0
0.7120036377870321,7149.187069054546,0
0.7541856987867415,7609.7086604906,0
0.6488293870775348,7104.684436099942,0
0.6775356629469924,7294.911864344295,0
0.9664558754574303,10150.780789858509,0
0.8323360969375293,8424.91419204225,0
0.7547050371704684,7352.978003779758,0
0.8818139737808042,8620.959521123432,0
0.7072275407716898,6955.459047761064,0
0.8542086667065887,9258.36617428329,0
0.7963627395027155,8049.694534669918,0
0.7252961163193283,7235.168519575548,0
0.8941698399619046,8497.95315838946,0
0.5217769895126447,5202.944844997985,0
0.5332848000275976,5828.796491801873,0
0.5733453944989525,5786.767341386703,0
0.7966622905048333,8310.385545492989,0
0.9949005651633216,9872.427661507707,0
1.0565677745821151,10677.942516945694,0
0.8112546416473227,8180.962448671736,0
0.7358320579646696,8204.746864729588,0
0.46377995756745477,4847.517087436364,0
0.6920580036615147,6592.924796730752,0
0.6551719849552224,6210.379012507288,0
0.615206834268934,6597.209575948952,0
0.7257406713326648,7147.362707156876,0
0.6026885898810933,6853.899298890877,0
0.5084870569025275,4753.897153784839,0
0.8357859897161732,8757.271478136461,0
0.6294294920818663,6067.088130823331,0
0.8020292564931608,8076.053978468068,0
1.0241571673395837,10667.689636648702,0
0.5795865014464953,6089.194907411745,0
0.4297654674193507,3550.118101703866,0
0.6877944952043191,6992.75803445269,0
0.9059947144695261,9046.702345962478,0
1.0126195015094928,10583.855646655073,0
0.5022974761450445,5725.032119240214,0
0.8011367118627258,8384.400407397643,0
0.6790188260189107,6569.966943609889,0
0.7353984251566665,7627.427365392012,0
1.122540242635704,11381.1189462242,0
0.5506540567391331,5025.541178992338,0
0.8390991230033338,7792.765939277497,0
0.8005395771277622,8698.292956165651,0
0.8898277544505508,9051.136114110708,0
0.8128791579031573,7581.9554359121585,0
0.775191371732544,7923.654873130218,0
0.7137607529029768,6882.803072181022,0
0.8226711462038889,7747.395198707411,0
0.7281195746941386,7013.85420339511,0
0.8254887186668349,8647.476816423741,0
0.6725959575367296,7008.44235903029,0
0.7917624088446423,7843.417531073283,0
0.7195889280076493,7387.236598485791,0
0.91683066127704,9078.769896137926,0
0.7631758736884058,7433.497308264231,0
0.4946774370282485,5106.541632002141,0
0.8733102471174073,9363.105691866811,0
0.6405841149819151,6123.770574931993,0
0.6009582253053738,6874.879455790657,0
0.6820545933194775,6781.7492572690935,0
0.9550085750712803,9676.473396177533,0
0.42263279121767844,4688.115002092312,0
1.188600988190094,12304.585051448792,0
0.8452003234215605,8686.779785203573,0
0.8246666665567648,8001.391522769812,0
0.7777804496907624,7099.25730765184,0
0.8490653126443849,8018.732186002975,0
0.8294080940711581,7938.934927743159,0
0.8618672209404955,8374.452296845102,0
0.7994382339219962,8260.649793083197,0
0.7296738531490554,7480.347200436522,0
0.7474593314660412,7134.221970100771,0
0.7707212832896362,7479.602418591843,0
0.7316881925360813,7064.846997039068,0
0.877535345075607,9309.683321202705,0
0.8539819125733092,8197.205155499832,0
0.31845588347261417,3051.517132725154,0
0.867915265531742,8548.619018060132,0
0.7792936503435001,7592.7986087544505,0
0.7593010062397572,7209.592778749016,0
0.6796411207686043,7015.597950482448,0
0.9088514561059091,9410.785159847148,0
0.8866098638640035,8905.476689286812,0
0.5993668499056777,6249.220916953246,0
0.8874140111787893,8141.71350822448,0
0.5418286204471447,6053.610881941147,0
0.545941167798718,5479.153260958855,0
0.5801686503084711,6054.275143052309,0
0.889941984490244,8579.769350340946,0
0.9048053430812054,8760.641546976758,0
0.7935329188968392,8299.80165584825,0
0.872932631563436,8624.81925699645,0
0.827874388257442,8401.503528409246,0
0.731133253059814,6589.293957007659,0
0.8490742461118753,7887.736802933444,0
0.8714736397576007,8990.015211358535,0
0.805394551092245,8885.820655404834,0
0.9025340104468996,9031.73059920658,0
0.8235467626847802,8628.996829676433,0
0.8374452564958067,7908.087434263772,0
0.9372199775930389,9132.99815531475,0
0.7204102099085479,7670.880167054784,0
0.666784527746299,6603.2088764226155,0
0.6584357154203209,7405.655095112877,0
0.5835126447913079,6441.632979812353,0
0.6434561862199534,6419.268353876768,0
0.650167319814374,7319.648968128959,0
0.5770734590388292,6583.3244971657205,0
0.7153625374506511,7029.115954189522,0
0.45985394219308884,4482.355469299791,0
0.7969861391556557,7496.002587956083,0
0.783103798284169,7604.417786525387,0
0.6346970663540404,6323.824678523261,0
0.8612585799064983,8359.686867996148,0
0.8803977651635218,9111.558031581297,0
0.4610259026547145,5004.304830569013,0
0.6830765751262291,6328.98401378572,0
0.6040247139589412,6342.953648659463,0
0.5978820680509623,6019.9547999090855,0
0.8694636716608277,8791.385276047537,0
0.6831166554680614,7439.563821027395,0
0.710168006658608,6874.7313584103995,0
0.44519318449142864,4591.910481084672,0
0.8685266375233319,8487.558779235127,0
0.5414308612030458,5671.865173628732,0
0.7324322395696485,7764.267859374311,0
0.8344092271435273,7925.92489198072,0
0.9799225874215887,9637.033746139117,0
0.6390792834287886,5679.942327235562,0
0.35179996208730796,2869.8587261926405,0
0.821731704184378,7835.611009293301,0
0.9558888016887788,10150.609250824155,0
1.0077295032533995,9331.883173465176,0
0.7517833840188503,7750.0768436162725,0
0.6787103815346917,6856.761802371307,0
0.8847345260492984,8727.012836759617,0
0.6088415686330518,6118.589507306631,0
0.8339925943559893,8211.03318145518,0
0.7978912521098394,7937.381036255876,0
0.957416907848821,9096.588544468263,0
1.1305551615687788,11652.19764939798,0
0.8101239885172565,8137.143138198842,0
0.617833562019136,6617.808722701604,0
0.7742931214816037,7222.544588378906,0
0.48621653865744613,4971.307471645178,0
0.6211254360269479,6403.208992059579,0
0.7449353299169051,6920.325152367343,0
0.6147941388953093,6657.5753871204515,0
0.77112044000483,7727.319942895864,0
0.6711686160469948,6176.513031839538,0
0.94071389849057,8987.929283155941,0
0.7601183484731889,7595.056929531027,0
0.7534610614737023,7365.425500646855,0
0.7334829235615034,7040.948221409585,0
0.7570881906653899,7814.878070168884,0
0.9370679885265207,8620.284853880836,0
0.6673209383832607,5958.527549559052,0
0.6991179973425388,6998.042389157726,0
0.6622534366356583,6938.856581645918,0
0.5423709560621028,5605.87704651041,0
0.6228866823557629,6659.005920331778,0
0.620981986801037,6943.65023905379,0
0.9238617067870023,8751.49520930358,0
0.7730092959468507,7880.418715995866,0
0.8043791593527332,7623.863423103547,0
0.8339888586438218,8952.686228643506,0
0.7544278989380047,7407.196459012643,0
0.7695991500220761,7982.812111240985,0
0.7454798909288104,7136.732409181566,0
0.8270287079766603,7633.7967765667045,0
0.6487028192643136,6823.164814343467,0
0.41668596588636314,3865.8488883764685,0
0.6862420902444144,7341.578163987094,0
1.0169007227153763,9469.532478977439,0
0.9190134456129297,8596.622482701507,0
0.8910130692983887,9140.618941829081,0
0.9426349928631684,9362.603890108772,0
0.7934465447121297,7814.43331845368,0
0.7320005959633341,7718.78693580528,0
0.6139781543895393,6526.158588241104,0
0.7050404896817073,7168.550351283552,0
0.8068380280433705,8570.126340586818,0
0.9939958405430335,9465.339780290415,0
0.7456196892682898,7231.7903358579615,0
0.7219408338422871,6947.625550253057,0
0.7815410204527793,7722.61183138024,0
0.8125386186143229,8380.855721057365,0
0.517098822753898,5231.520103044876,0
0.4279356172244499,4324.278090957496,0
0.6456765962492904,6543.305579052363,0
0.633852423623856,5794.826660551657,0
0.7202322536670687,6726.105241425061,0
0.7658106477496947,6910.016398476881,0
0.6929418995229201,7045.846199961195,0
0.8950737284467027,9127.130575796644,0
0.7923668455563173,7593.291533551958,0
0.7747454664755385,8056.177555312377,0
0.8595595590431677,8538.724955800726,0
0.5077937383407269,5664.234351753339,0
0.9188581043066266,9088.232099191051,0
0.7479417795585958,6880.067561041209,0
0.8691481083689511,8647.116018755938,0
0.6159216869958009,5942.159247850486,0
0.5437718751177821,5160.233280309144,0
0.9152336702841578,8731.002783465097,0
0.7672768079026894,8163.265124384881,0
0.6244442624511206,6141.142363764162,0
0.6656049689741781,5820.694277541715,0
0.9804118701382298,9627.418623526659,0
0.548098429418181,5956.042324584698,0
0.9654406441845088,9707.02049749298,0
0.6017456240783826,6080.041451932879,0
0.9007925538694078,8410.381050381366,0
0.7235223019849055,7222.842199678315,0
0.8087648229401314,7972.9273595595605,0
0.6802528479155037,6584.027343942753,0
0.6802511057161111,6903.683352224058,0
0.7902728595338137,7504.3596599279135,0
0.594352149899907,5902.21863771081,0
0.8562217800749375,8627.175331606732,0
0.6781150256462091,6609.204770490785,0
0.7534847031088254,7006.895448711868,0
0.5253617571078597,6132.407276439862,0
0.34996796998757607,3747.4340599955503,0
0.7017455452035866,7323.738024655395,0
1.1171931677073748,11083.543114321204,0
0.9178895119260627,8562.558715401998,0
0.7261917541161549,7447.338933994254,0
0.7275923523940994,7205.896170201289,0
0.7820320030632623,7098.3428990237,0
0.8577572452517538,8399.501058836986,0
0.5501503803623304,5790.608414503692,0
0.9108790434806807,9183.912723220454,0
0.913648648523794,8543.209288787531,0
0.8600123122855599,8064.054711375418,0
0.808616920060274,8069.742955594509,0
0.7430281820940727,7887.312728756459,0
0.84166209977429,8511.872113063891,0
0.8712860876794036,8326.263232877123,0
0.6688569894733886,6972.320172706487,0
0.5852134241146201,6710.55191438025,0
0.7801180149082022,7784.548491830873,0
0.9472288758297618,9777.754194611192,0
0.48538190717651963,5726.323306997885,0
0.464702657001937,5634.042261923612,0
0.7760110046483891,7948.391421741318,0
0.7393163808824518,8044.391595955422,0
0.7765787652171435,7628.658424885269,0
0.8603205955187173,8201.167698363153,0
0.7285875403541833,7007.0618900632735,0
1.0359879635260492,9805.508387251215,0
0.4895491426007837,5245.139338132847,0
0.6409826163102256,6155.099024448737,0
0.6797862189457289,7362.710715271284,0
0.4748192740273294,5217.309003759117,0
0.672012412408762,7094.164213689512,0
1.012762123987847,10326.081940501555,0
0.7780616370498947,7254.4104074984725,0
0.7808240303109614,8233.989647123703,0
0.5960826861686551,5810.018079201048,0
0.7031905985145351,6557.512772675228,0
0.6863830948205625,6856.671787266748,0
0.6882678867496739,6922.021702307445,0
0.9364391689732892,9395.306564454251,0
0.8129949519085207,8326.83741877792,0
0.6194383027780348,6083.858313921369,0
0.7925821487752073,8263.487987724924,0
0.8124723146079909,8287.20860687598,0
0.9080130376322417,9041.097860184018,0
1.039800624892245,9761.665821725323,0
0.6062495845762412,5940.74055533594,0
0.5953143313920121,6077.689312125137,0
0.6096066006755582,5377.8449312065995,0
0.6876939502125071,7568.395653814133,0
0.8226271298404442,8260.060266858753,0
0.968159547568822,8814.375148147583,0
0.6970843309953294,7549.394178607758,0
0.6757126351518556,6784.559490156365,0
0.7302544891385583,7508.4345787989,0
0.6107646064306004,6086.677167342116,0
1.02795531275573,10965.210738715166,0
0.48988771229322847,5037.932446167238,0
0.7934542694018314,7288.76947096309,0
1.0489695980607479,10777.422515479579,0
0.7662426796904923,7448.923494007525,0
0.7145659037144624,6845.059846322078,0
0.6851498454383652,6900.495168191677,0
0.7649812606887815,7333.613256677369,0
0.907056459592362,9640.08254532139,0
0.3973791584785688,4541.890128838703,0
1.0384206144508226,9629.596979430502,0
0.5207065746090144,5373.408295377777,0
0.6729817537045025,6960.107650432693,0
0.6137438655679988,6547.694790714562,0
0.805634355866593,8559.935379117269,0
0.5168606896319843,5195.467386003883,0
0.8480810122780998,8249.994689062685,0
1.0874029543164518,10621.82247358201,0
0.577328582815172,5318.1444225731,0
0.7868833234355088,7583.420233951954,0
0.6548874908668353,6514.556207738958,0
0.8160183330911859,8371.073089771877,0
0.794527741739723,7850.337093214337,0
0.6405988335502067,6696.856177795022,0
0.8094554961635109,8237.64331266023,0
0.9974835070567832,10260.478950560102,0
0.7115839494562755,7215.963084274126,0
0.8517571419961804,8374.448245282389,0
0.5829785646483384,5565.020038835363,0
0.6534801810629705,5798.380071255288,0
0.8321781136082708,8183.793971599957,0
1.0314843555136481,10053.395064923212,0
0.8005723455176608,8197.99186773516,0
0.7576660623332513,6845.789117367963,0
0.7269818606015694,7484.451294206574,0
0.5164697836447574,5457.513136694476,0
0.8583265253635327,8394.270235897608,0
0.8514158008375969,9031.721156790027,0
0.7175085489366059,6952.46608841236,0
0.7063463344076696,7291.765594509815,0
0.7800779308946119,8137.312824979587,0
0.7487277874468137,6885.720472154645,0
0.7741608576589984,7536.231072887926,0
1.0876834882333353,10609.094048913106,0
0.7188435980180878,6903.960599463706,0
0.7376283353522828,7223.64508762567,0
0.6649560453863002,6730.485586933591,0
0.8812788043777674,8568.077114331112,0
0.7226283998018133,7282.950887559114,0
0.6380272552044527,6774.128279994822,0
0.879785086120692,9651.226333650722,0
0.9420933361335251,9336.784256520516,0
0.6434388665194539,6648.088655689907,0
0.5371374552659035,4666.663767861403,0
0.8872459135016482,9233.87067458312,0
0.6178277364852935,6679.263809116526,0
0.8779642271905528,8949.659964379762,0
0.40589031743172477,4321.265405688206,0
0.8966422688243898,8682.073700637717,0
0.5739225549338832,5906.0585933059165,0
0.8773150497565809,8477.817015531298,0
0.7744480034656436,7217.12300557179,0
0.5926672029084382,6175.610168427846,0
0.6680925050795415,6780.001842556634,0
0.8661365916636236,8887.435839496731,0
0.7597175796027832,7718.078590470544,0
0.8545923825648012,8408.67132803706,0
1.0594965263057812,10390.812098450077,0
0.5462171364683196,5471.804649218817,0
1.0719573617076528,9997.5297544309,0
0.8160054887159235,7574.834002653579,0
0.6243520323379453,5993.007186194219,0
0.5046073236872014,5489.834950478671,0
0.7046415990713928,7020.790046403488,0
0.8858576565733383,9088.250656222477,0
0.7825049609414717,6947.007908628852,0
0.9430415288822406,9738.829589704408,0
0.5726128414609112,5445.263173940249,0
0.7531010623834709,7550.2904622528495,0
0.5124182028567791,5477.953238777188,0
0.7992133480187104,8177.499565278762,0
0.8544370000415145,8653.123207468769,0
0.748840799371273,6864.380378179058,0
0.31396050001740683,3724.04752945537,0
0.8157598435912774,7891.004776093364,0
0.7384640273849716,8020.100025316371,0
0.8289226998512202,8345.941035755419,0
0.9777666038498221,9371.012202030337,0
0.58983769561076,6042.018562714257,0
0.7920611141808134,8826.144359510323,0
0.9392868684871897,9512.265378471884,0
0.43562579952428127,5056.144505256434,0
0.8029560435562777,8018.013724848361,0
0.6875488897331479,6902.517277670595,0
0.7462199190538134,7420.435305260395,0
0.7621869143894386,7779.649831751822,0
0.6510704123263116,6829.70591233068,0
0.664793320725452,6537.710078005275,0
0.731936606339343,7667.9744985364005,0
0.5211796154990087,5843.531696663117,0
0.6311465314696004,5718.971195319452,0
0.8468676485590056,8650.3611410698,0
0.6191177711621332,5514.154489811566,0
0.8225549845628009,8791.232578535111,0
0.7000009829886333,8147.603327039928,0
0.540633222845918,4960.395541225339,0
0.6476952158476652,6595.364652152832,0
0.8915185856661176,9409.301713539897,0
0.5888544894976306,5746.454843300131,0
0.7602039904228739,6968.210922644771,0
0.8222767160643631,8253.722105553099,0
0.8943537301200036,8548.033487012171,0
0.664396577127726,6972.758280744074,0
0.5910189298056573,6536.924091551169,0
0.9459967138038178,9373.806455225664,0
0.993631911934131,10452.802973893773,0
0.8587522969004855,9265.517341201363,0
0.7818871706544824,7718.317254042724,0
0.6687280429954983,6242.921734270191,0
0.6404898899988692,6214.911792577673,0
0.8158675152343856,8435.38429913343,0
0.8204525801399977,8479.162711233415,0
0.889033499582571,9488.318541500295,0
0.7704850492256606,8252.157930279544,0
0.5595946680362187,5554.9077020793275,0
0.9275440118853816,8720.493709067488,0
0.5970246107186485,5801.2028973778515,0
0.6764438249484019,6874.671513569302,0
0.7743915297938387,7563.213615816535,0
1.0246945682865878,10715.931047237267,0
1.154992787760867,12336.258888109063,0
0.8324774651148134,8295.125943261211,0
0.7629250743903342,7481.127895754968,0
0.8840286128458783,8591.61695840159,0
0.9085030462587605,8808.849009152742,0
0.7572946501105325,6928.864926150611,0
0.9706806179662394,10644.737439416978,0
0.7875225379224886,7989.338503203934,0
0.7743432606872493,8297.879564230861,0
0.8513613714091139,8771.595567409615,0
0.8208696879733002,8192.766042922287,0
0.9519864369501957,8657.286633520582,0
0.6395278932559799,6590.152172277126,0
0.7084573817195751,6870.278226544901,0
0.5716854914315938,5451.331537272615,0
0.823631402757295,8101.645698042495,0
0.8777919953215843,8945.016234984492,0
0.7537038512709089,8084.285619009125,0
0.9924821199774003,10320.96036210759,0
0.7662751581975457,7774.554735628393,0
0.8630378225038101,8490.00666029098,0
0.5648497219868701,5748.740824813229,0
0.6672724336026598,6861.878671458471,0
0.8747203072102475,9076.229534748954,0
0.8444149030987601,9148.538055501365,0
0.7142896738715289,7084.127772865074,0
0.7065317181485542,7270.9704118888185,0
0.5500823495866685,5246.597587095039,0
0.7284515268346193,7013.221584113439,0
0.7790995892794463,8586.902997757808,0
0.8127844278557047,8378.815778002901,0
0.8049525218392771,8515.47944703416,0
0.746146557959832,7214.789194528145,0
0.8013697239861973,7675.9115309697145,0
0.6407788538173939,6784.477884800785,0
0.8229645963174601,8436.13116128493,0
0.8088641211123621,8470.294568222296,0
0.8298039342194375,8099.96085949953,0
0.6822091985816761,6799.1642683707105,0
0.44357990263459934,4208.631083260408,0
0.9475029045257685,9084.329796198022,0
0.6169851067695493,6658.284002035784,0
0.6037987369192186,6345.551450107723,0
0.8240323658110187,8709.97945941728,0
0.6784680953917307,6899.096600205868,0
0.8172928907882091,8817.910933335479,0
0.9124210463255384,8506.142957691924,0
0.8210856950952728,8609.756856682856,0
0.5456258443307572,5407.723430921913,0
0.9857257766610545,9691.362235515762,0
0.8708415593781346,7579.089943870654,0
0.7108067109358915,6502.627549079982,0
0.8009113889637908,7568.915721073842,0
0.47636212441074344,4977.732057470809,0
0.8100273637878062,7901.810289734238,0
0.6121225669274228,5759.748554021678,0
0.5416860734245311,5661.198838470329,0
0.5114515851901864,5308.970805232713,0
0.8665288790705249,9244.444744410568,0
0.6683331152844277,6712.390693353923,0
0.8957815901432222,9715.552974220172,0
0.6703102066266489,6620.500990609916,0
0.5044806165162667,5100.918918122865,0
0.6017378172402569,5556.235983920771,0
0.9331054857047558,8925.173460730699,0
0.8248176981991089,7179.495898369428,0
0.7046458829501416,6863.743713077238,0
0.7474259782719063,7791.139278576542,0
0.8131962322362126,8424.13240507592,0
0.8824760928313844,8772.839361769058,0
0.9380751862119223,9735.848206504088,0
0.6592964938520941,7091.119932244847,0
0.527547044239179,5240.768986354806,0
0.6766417463984118,7052.213776424395,0
0.833531424266577,7868.116980573171,0
0.6337039227549957,6668.628951005284,0
0.695134119987767,5628.826413878089,0
0.762337877123956,8289.504695859778,0
0.7497413723174553,7348.189853339109,0
0.7659918376884628,7225.765150229371,0
0.6204766023160503,6256.865969236897,0
0.6857122378880228,7209.894776958842,0
0.6315144374409362,6321.143617510552,0
0.8794236720159501,9179.690474313615,0
0.9224140188144335,9337.252619826499,0
0.47298098195068805,4537.64180250196,0
0.6180397024429309,6331.766648164608,0
0.5351465964587379,5333.463108789057,0
0.6332681876238132,6394.043494203855,0
0.6916415121144022,7332.460926618962,0
0.529071301235522,5183.56363856326,0
0.5967570501662198,6124.6287486993215,0
0.5624964904700411,5848.132365418928,0
0.7746672870473993,7605.302179454929,0
0.7684918234247138,7699.8403311109305,0
0.6451241840741944,6543.139779646048,0
0.759789007086523,7727.711908190774,0
0.6331715474362968,6953.510133906297,0
0.7117219795440531,7040.431217211897,0
0.9748899242432029,9949.623226422698,0
0.9809931132095359,9642.789374154661,0
0.5573805708237739,5524.143027619936,0
0.823197824399242,8761.55817262399,0
0.863018021579803,8213.007137613575,0
0.5157254945130623,5780.946543818667,0
0.8890669792936068,8362.727278138038,0
1.0060449909345628,9562.707763419055,0
0.6112526074775533,5549.118282882278,0
0.6291921470450715,5915.229137771839,0
0.8947330089759726,8916.721428338802,0
0.7939882381682544,7809.944443129375,0
0.8538125641339859,8460.06945371071,0
0.7932807254585195,8055.361387427684,0
0.8748194163696689,7705.828995628619,0
0.586408088810868,5526.9507350427375,0
0.9379122593258399,9134.627609248859,0
0.9037806364937994,9188.67168539107,0
0.7087871916918717,7143.7366885166175,0
0.8031919061259866,7472.846600358617,0
0.5273432032025747,5356.258665693533,0
0.7999507719705548,7956.406136534206,0
0.8080329866976069,8309.222754843287,0
0.7495289132673192,7708.3806941125795,0
0.8751470594468771,9469.862301465344,0
0.6901280050176981,7169.071539085245,0
0.8945737809871626,8454.273825631535,0
0.5620730592984569,6301.430441642244,0
0.7603012069645197,7848.241374009976,0
0.7640699424985286,7212.652615536376,0
0.7544660078587991,7644.075394403749,0
0.7059076632339287,6891.651143225064,0
0.7365591101589736,7922.130209246909,0
0.9065523884307679,8425.19948861722,0
0.7185750563099182,6750.74581623679,0
0.4804707173143462,4807.596118393455,0
1.035946994045545,10149.32862888361,0
0.938112550110923,9331.642912256755,0
0.5460615807102936,5539.855752774849,0
0.8028169078253239,8144.54267586404,0
0.7099194905405093,6869.0619771899155,0
0.8599663041347068,8139.699874290184,0
0.75610041295093,7864.547469107549,0
0.6509329354963684,7121.362298110376,0
0.6272635284696005,6291.670055474143,0
0.6572466263494631,6500.370556570616,0
0.615865523259216,6118.078209384851,0
0.6910015728367225,6405.890078140472,0
0.7746033816691895,7645.840391616157,0
0.6611232137719049,6263.5457718354355,0
0.8536239535233705,8461.212400014072,0
0.9213562311159457,9911.19312278884,0
0.6746158502916916,6345.586328333128,0
0.8115504146885038,7464.962494433951,0
0.7875440086406178,8294.790856034097,0
0.8349266581219167,8307.27268859301,0
0.7210903207074706,7469.4728642834125,0
0.8741926193328009,8498.293416715493,0
0.7993236627037705,8071.334964672806,0
0.5703847646347302,5470.121318640166,0
0.8658668327685705,8942.43326070483,0
0.8702491250307266,8594.836558500585,0
0.6015225790843095,6301.966271445458,0
0.7977045685672807,7375.839519668432,0
0.8741899953699449,8233.935694036361,0
0.7775357750532271,7360.0649055803115,0
0.9863794202526,9005.50202721431,0
1.0812171130893817,11083.496758013194,0
0.6081958857934394,6019.405775087325,0
0.4833712942360993,5280.045204518043,0
0.7584335029834623,8106.945469546315,0
0.8445439704346732,9099.798048858278,0
0.7523083497512887,6758.457226354784,0
0.9633537697838818,9639.669435923666,0
0.5715768817126456,5574.5474200438275,0
0.751761108635371,8416.15790389956,0
0.6184448430272047,6761.113166260485,0
1.0318351254387739,9905.720325178881,0
1.039073354020557,10519.542561795506,0
0.6517265336990614,6245.600737425306,0
0.6632668940248511,6919.550512728085,0
0.9252946562637689,8654.108929862583,0
0.6911622731319207,6848.929266058424,0
0.7723384426194287,7621.0209806010735,0
0.7593750419456837,7332.474898995043,0
0.5525353875111354,4634.24027705623,0
0.6989555580988361,7114.736512121323,0
0.6695066754574209,6247.821647177923,0
0.6507972410117931,6836.742021578502,0
0.9548563350877605,9467.308503295975,0
0.5439328972666536,5506.3250722163575,0
0.8596578896083908,8818.425060531554,0
0.7478830996678194,6965.718376272902,0
0.8163404111189116,7244.92816189952,0
0.8891046502010778,8728.690401574779,0
0.752411467765593,8097.213564238236,0
0.6974190525746028,2239.6815013204628,1
0.5349788752018307,2019.8676824621884,1
0.4296269386994683,652.9976509378508,1
0.5487869674395058,2286.14422656584,1
0.6317827988824919,3274.704412219203,1
0.2911427176314827,1229.5510721121,1
0.7421535556845047,3810.9523854412996,1
0.5876200763133754,3006.3938435691052,1
0.4173528702693463,1674.597152698931,1
0.5541399547357261,2552.6298000726356,1
0.915779437328231,4508.995188017684,1
0.8827630933841836,3744.7359427173183,1
0.611346301271717,2727.846497457542,1
0.5510601684437324,2319.412026327251,1
0.5118702472175313,2386.71726799376,1
0.574893058880148,1849.9372276672116,1
0.5023473909543207,14.332827950170266,1
0.8674129219474189,5089.939792885227,1
0.44608825525084134,2813.8566072937206,1
0.6996095234329741,3011.6848001907015,1
0.6719470067430806,2454.5806832231438,1
0.37442114347569294,1761.9512181457085,1
0.5728078829087898,2105.173377735478,1
0.4331156940862441,919.8294492167977,1
0.8519588163314425,4823.070420631271,1
0.40166425433840186,1309.6674983275307,1
0.5360151266660433,1252.6033536983523,1
0.5415627270237382,2172.204917590638,1
0.6507951216386674,4118.458956681376,1
0.4381931556452974,2586.6176812973454,1
0.5525380383055906,1127.4879399687493,1
0.788708095216279,4167.016890726363,1
0.7001596472115466,3311.4345868251294,1
0.6511520731820818,3353.0817747649903,1
0.6295051065591344,3141.9869646892516,1
0.7705966544161906,5372.168166033716,1
0.8417593009366775,5289.30785889779,1
0.35447450111486656,1874.9451043192234,1
0.7135771308310336,4540.819761025663,1
0.6064373540446981,2881.123340119533,1
0.6914998162307605,3278.25653503904,1
0.3792427377522465,335.40175420425504,1
0.6366739021826374,2645.818896283947,1
0.6050610314830717,1507.6775120961893,1
0.771004792191756,3185.745439030779,1
0.7510071714486225,3546.359906880056,1
0.3474349653341178,19.34510615634371,1
0.522246606343594,2501.523217460086,1
0.7874929739583586,4240.165142743322,1
0.735151655566935,2068.285377701021,1
0.7250178748607329,3382.768813863623,1
0.763703670852166,2709.5142797360895,1
0.5294280464977056,2811.461307700471,1
0.4872200115011527,2511.2164323319107,1
0.5137317247610921,812.8357904059502,1
0.4566556473751936,1271.5723079035338,1
0.7903862110486054,3429.8044891492586,1
0.6009430863744819,2518.5156213510177,1
0.49150757211420254,2437.6726311096777,1
0.5030213512197156,1759.327872824519,1
0.4390115499393422,2465.037886983809,1
0.6306806176497974,4141.263252410472,1
0.6292209227028297,2107.128041310231,1
0.5072270128664492,1375.3435701608284,1
0.6962230283729005,3312.576544338224,1
0.4290321864020741,2334.2344021335953,1
0.585761718435189,2824.0528513942345,1
0.6879100040681114,4337.2930756348305,1
0.6582159439851093,2199.0175194035037,1
0.5785504245347675,2524.6769946186996,1
0.35026619491153976,1497.4571232225414,1
0.5813660848568333,2130.591727051092,1
0.6283075169458716,3194.2839015666214,1
0.4988791722536268,410.9987037262983,1
0.5804967987827937,2930.6819676046894,1
0.4779129419538351,2464.6373153288505,1
0.4639050592195385,2451.292341172663,1
0.7210206223559037,3804.494762273124,1
0.5702503427024052,2688.5170323691113,1
0.6402165378679816,4237.969824124888,1
0.5828692808649253,1588.1344991878104,1
0.6618645620625736,2748.7603601653905,1
0.6059455058594525,2627.4686021536086,1
0.6130911649370006,1259.867549386677,1
0.753773401638269,3569.7269833143023,1
0.8143315817347776,5688.838430974366,1
0.54321854769014,2317.161284512589,1
0.7314513236584889,3148.2105383213066,1
0.6097195189080673,2624.427284246954,1
0.5380574412834346,1845.450897538016,1
0.29052888527857657,535.7224543963086,1
0.5920791379636758,1646.6680593881476,1
0.35606773153511667,887.7832414805324,1
0.8557235071545132,4610.629444453732,1
0.7312898882067232,1907.4400361779915,1
0.4896906902569684,1767.0988846478404,1
0.5812595945087401,3445.971851600973,1
0.39625897794035386,1041.5789412975605,1
0.6031934310589976,1339.9066700017108,1
0.6373938884997752,2731.6032373730714,1
0.7381852694150396,3734.946473911671,1
0.6170153220626415,3059.0831447251785,1
0.6612934563346404,2546.7591161175815,1
0.5345084603906118,2584.8323094342622,1
0.6896490127940632,2454.946075432408,1
0.573001603916527,2709.3922239939375,1
0.4104162495185685,1276.6700040292283,1
0.5704351967951209,2603.6780628240817,1
0.40010371705407566,898.753256602841,1
0.6120248947509056,2642.2623988192836,1
0.5655300884077744,1714.9362162412017,1
0.6430327330456819,5384.763980880966,1
0.50002886968478,2595.713016662479,1
0.4313093865076614,1217.7352651580422,1
0.7058115203859286,2349.2554989482264,1
0.5857026314191769,2959.811403037419,1
0.8473457787384833,4545.770824885028,1
0.6600833621463322,1980.462951573367,1
0.31307852651063256,725.2859443461791,1
0.7343842831569163,4028.8269882099266,1
0.36047684587739265,700.2140391014852,1
0.5067208651457551,2027.0597661748775,1
0.49052641969996047,2500.6390080704477,1
0.5322040629422065,2713.671703443577,1
0.8537340927403377,2936.981763184326,1
0.5941011472427177,1678.9673372483387,1
0.6528567736072128,2468.429050569627,1
0.6309229618596579,3061.0041745405615,1
0.49384637350890076,2820.276725772709,1
0.6146646201315065,2543.81995091021,1
0.7767404621197228,2821.3662997796177,1
0.6309334340041276,3956.356083076255,1
0.7214253385915624,3116.909256074314,1
0.6914692354067741,2874.689242833979,1
0.5587753512245015,560.7009266374706,1
0.6003438807042577,2622.310542364557,1
0.5904503513667756,3184.170388379554,1
0.6756314496214615,3194.805701975382,1
0.64269156557838,1546.3409872943485,1
0.36747196599475335,1378.565957659034,1
0.33663459839075155,2019.0316475806385,1
0.6675005148641575,3075.3729865155487,1
0.6839411538782989,3833.9215957457086,1
0.5726989073724874,2295.4995729653433,1
0.7907682281833115,3633.5288048272478,1
0.602858259968314,2625.5816758076994,1
0.4591950110668215,2389.6413627818633,1
0.7290625048077573,2258.9776449884826,1
0.5739125168247594,3645.1666370981775,1
0.5820578729323103,2952.861059652242,1
0.9885843568801391,5122.110309261382,1
0.43964968133895516,1686.9002397811612,1
0.6872858164773622,3367.8189137076415,1
0.5827614321592942,1597.2926628620917,1
0.5855859197726754,1763.4123925672484,1
0.6043147531862081,2559.9017901997304,1
0.7649721614666005,2721.4769653177627,1
0.7923434577483307,6203.133192391414,1
0.6481498223905016,2165.6297429793017,1
0.40954423363103254,1334.6184274565646,1
0.734541842750315,2752.2577670456917,1
0.36130472480623305,0.0,1
0.517086416434845,2190.1006050534943,1
0.6482895258023714,2632.6347053348377,1
0.7594744361566268,3264.426791535322,1
0.7554800923675994,3990.361923951346,1
0.4599308766133983,2133.5731479986675,1
0.5367253313406297,2585.9510156506735,1
0.5177843677640441,1605.6107192026773,1
0.4288853089451966,1197.897257689759,1
0.694899915678598,2633.131364407906,1
0.28860866837142934,1170.854043715579,1
0.5707783514989191,2078.4144103211815,1
0.45393276246097564,1419.2523731793672,1
0.5671770128295177,3497.282185838888,1
0.7639022117838005,4540.523522330283,1
0.43959854855350455,912.8661106605389,1
0.09942171957960558,341.71200483135044,1
0.5496849492835115,2163.0486564881776,1
0.5358491416588775,2481.317590893942,1
0.6784353971697045,2860.9811302021512,1
0.485121218340174,1899.3311274442199,1
0.5724651945191589,2521.0307233553044,1
0.735938786755134,2638.8275802853236,1
0.7865282093430543,3973.071319220475,1
0.469313852697944,286.1785705812613,1
0.46652875644143227,1943.506955650927,1
0.666296079019593,2571.6888390832764,1
0.49457654260258554,982.3721510186266,1
0.7901876856470855,4418.368555637992,1
0.5484254204432616,1946.9434747261148,1
0.5498738240217574,2439.2316303355256,1
0.7791004963764822,3399.822692289117,1
0.5168524040310765,1666.4840393128163,1
0.4142124588338405,425.533574656012,1
0.6871829835097143,1842.1148472832756,1
0.834530467098572,3542.2136658704812,1
0.4441912501283089,2074.3004044236986,1
0.5062897670118884,1351.2855359852265,1
0.7686613532909105,3302.2422215958236,1
0.6279762810480343,2066.6071846289383,1
0.4598278931708676,1909.094106905997,1
0.5452116473347977,2933.0190298951848,1
0.7566714376407412,3612.261386969157,1
0.83507831691047,5602.044877925621,1
0.6940708250265368,3636.75482886761,1
0.8528189798233452,3958.330511456008,1
0.5087957750116543,1647.051579920195,1
0.484436260282713,1298.9327124236831,1
0.5529364581470365,2694.15637500911,1
0.6341378609626259,2920.0914881856024,1
0.3813072558686884,1343.042418708846,1
0.5566886467055165,2537.7232510362687,1
0.6919196927875011,2772.7815437899094,1
0.7503670570015074,2867.188548792077,1
0.7157438267990638,3191.015566793381,1
0.575518920813303,3081.348214313444,1
0.6044848796234291,1862.5438797081492,1
0.5531326197862033,1866.8300561915576,1
0.33843891207142734,1198.6863836079447,1
0.7732092244347618,4416.55588159309,1
0.712410382190844,2837.6213475078375,1
0.5670074010396016,2054.349114424641,1
0.4885124435608824,1001.7316175451889,1
1.097011156826797,6024.80288449785,1
0.37659830637948283,1551.6981018076383,1
0.46198493423548304,2102.673115339434,1
0.514520061581267,3149.2223121439993,1
0.7028292473609494,3228.532711354556,1
0.7364288778130419,3619.0429668045854,1
0.9051761818358521,4360.148335404492,1
0.6916286188286243,2655.5119349720176,1
0.411797745493979,1272.0175077281715,1
0.6101171067937646,2454.1756887219076,1
0.6382661764857089,2938.225587982275,1
0.7107487195705536,5106.591155217392,1
0.6336957321511186,1139.3769350187513,1
0.7732994614380663,4008.8451765584846,1
0.6838722603702418,2691.366223394176,1
0.76856017674229,3341.691681145364,1
0.6135294635476597,2782.048852631299,1
0.5177480635583509,1594.3903996791444,1
0.6634702881317324,3212.3269920977323,1
0.720863528912645,3051.083698966498,1
0.7536376419718795,3917.0811042734485,1
0.5333133542389896,2276.5460982639725,1
0.6809958041999379,2150.9804035166253,1
0.4204879197231358,78.16304655324802,1
0.7596305533536537,3767.766961325283,1
0.7536575022878157,3106.0463411651763,1
0.45719638165715454,1364.7797251746235,1
0.6045600848642342,1818.6199050356984,1
0.5851597900642682,2318.0353953770773,1
0.3684555652078611,861.8304533013388,1
0.47138823330745727,1338.1404022947493,1
0.4660028333304675,795.6215806265988,1
0.48245721086744514,2040.4846283639376,1
0.6802725637043154,1613.3487752970418,1
0.303911971031311,243.62048748479964,1
0.7334816935356034,4916.029571586911,1
0.8786446640277663,3888.261950620237,1
0.5908141877481295,1567.034707837356,1
0.5388784869853708,2972.0903983140124,1
0.70021358917455,3299.4800972783614,1
0.8640274227020467,4111.08083300203,1
0.5117333381017257,1373.3858180418645,1
0.939246286008743,3884.3111665447504,1
0.4001306378125818,1855.1350592500826,1
0.49033425831259214,630.5393240714837,1
0.7825234513548602,3448.6104281158514,1
0.8521573268938138,4420.2445765304565,1
0.9071222835162673,5611.976089074222,1
0.44682276241714974,741.4931459466636,1
0.7338633823793868,3344.7573563186706,1
0.6130080341193208,1765.4960676531105,1
0.7485774610370634,3612.751554006095,1
0.4850424115490062,840.385536867525,1
0.3923341834771726,950.4942584667746,1
0.4330141342432668,1502.7173590290554,1
0.5325314430635613,2552.309994478592,1
0.5149991454715115,1732.3573790224375,1
0.7330268339421679,3136.4182084277954,1
0.739861666201305,3454.7229257092094,1
0.8668827090698437,3447.2328388333567,1
0.8023509608307042,4365.46497229365,1
0.6735933651938087,3032.4005761802405,1
0.46642816683210025,1096.7803378252984,1
0.6718933688381186,4200.455912177051,1
0.5032258119424409,1539.0489178531184,1
0.8189799768289753,3257.3341667123145,1
0.8069446138006945,4270.7425549277295,1
0.6262884943474558,3127.1679193598698,1
0.3801071246622172,559.0194507075578,1
0.4469534860826217,1327.1611294484032,1
0.8147031668804764,4512.7528430120765,1
0.6756817939580012,1927.9680002677133,1
0.4830563621955644,2444.4814427484994,1
0.6528000303903211,3789.910113111117,1
0.6499690428986568,3326.6677000973436,1
0.5188998962408862,2693.362741762771,1
0.5401671725971088,2483.3517379376653,1
0.4877785545569558,2135.843952417393,1
0.6347125433592831,3459.8169113408103,1
0.6836916582121185,3202.757222688854,1
0.5370721701228791,2059.6182373820993,1
0.6503285487256707,3595.0365630141537,1
0.6145457642330985,2322.43967631731,1
0.6292249279023878,1275.8059987835265,1
0.6322958126511633,1591.3738236752822,1
0.3331836791298604,1396.3923099231486,1
0.6420669658848884,2343.720071285897,1
0.7277431958014015,4206.054131106797,1
0.5192098656799947,1452.7384824369392,1
0.6052918591136671,2826.0538348095374,1
0.5416872274459416,1810.4774744883755,1
0.5685870362442321,2253.1928936374716,1
0.3744064564361366,592.0586634276057,1
0.512776805078582,2029.740562519333,1
0.5182926730636301,2367.9539220473575,1
0.7088460746567549,2806.9730204042244,1
0.7033451950296677,2714.369209392782,1
0.5100052580840764,551.2032469278261,1
0.6944419878068355,3533.7574081805988,1
0.660789495344279,2576.9368605769096,1
0.6898951462909871,2957.4170621388407,1
0.7017779861190755,2626.602780818687,1
0.5364275905286552,1767.904126564888,1
0.5791033792219021,2907.2367667244216,1
0.6815437773379124,3248.2307157903783,1
0.2763930708813202,371.59220071038965,1
0.5386439956688688,1576.6113663419471,1
0.615549053926742,2152.48117350247,1
0.6788705343655865,2787.8262457987066,1
0.7490214906310754,3685.4823289465057,1
0.5347361912659363,1647.3203810698546,1
0.452683072767113,1958.4081546790605,1
0.5744769471644342,1973.967607202977,1
0.4856049185240627,1593.9515113080388,1
0.5441543861179707,2229.344812888282,1
0.670724355809741,3389.097058410959,1
0.4516461851110325,1275.7544270369758,1
0.5921633261115046,2933.829217334377,1
0.45405484337972146,340.81748085360744,1
0.49737955526983757,2094.044330421768,1
0.7310427294049869,1695.8590994331175,1
0.9189320741594599,4685.183605327731,1
0.5319853007953226,2046.129059207642,1
0.33216866959225555,0.0,1
0.2766165426785202,153.64880857958158,1
0.5555500426560022,2242.913581145817,1
0.8576292957354421,3073.3204125586494,1
0.655571021339877,2780.719099850105,1
0.6332829065832604,2656.8044753241693,1
0.7735655346261512,3733.8839793746624,1
0.43181908550863496,2172.714272243296,1
0.6027488318281149,3933.295970531781,1
0.32204465803971294,137.18343341868643,1
0.4249890073948531,1522.9271414274679,1
0.15536238351628492,503.2830138973354,1
0.5825840252398475,2278.7826796744703,1
0.7915832948650977,2312.8638406620503,1
0.6154507034291151,2588.102678240116,1
0.5047970220955371,2424.6050925090235,1
0.40818026156570225,1302.8831967941608,1
0.5366504472760136,2029.717980970706,1
0.3447271067150117,680.1062333461917,1
0.8389435924485487,3835.314427897686,1
0.6314786456669991,2095.6218016767716,1
0.45878797205031974,1663.6203193276176,1
0.8260689138484313,4448.09166649118,1
0.5770228811690669,873.4202475523467,1
0.619409356404134,1207.4115327365446,1
0.7023039765465504,1400.851755830678,1
0.5211429265869899,2736.443729181563,1
0.8522691741898599,2512.3570377610185,1
0.6340685500512575,3220.771742966644,1
0.8169568379512642,5525.77716557156,1
0.39251648018713353,92.06556367629662,1
0.6430365141621929,2900.4118061183945,1
0.5819388683674968,1635.0248315532795,1
0.4301598063635921,1822.3732618648937,1
0.4638647520900977,1773.2510944006804,1
0.5732600084162722,1485.0000763144506,1
0.8009863851897839,4610.164946901766,1
0.7151137022366948,3578.475679039856,1
0.6363492415412295,2566.5662375951483,1
0.8631531647020179,4132.366857649674,1
0.2863115813426852,817.9178595862219,1
0.4894927176983108,455.28930909004356,1
0.3157675622040186,308.8666973942469,1
0.5490415065325843,1219.8061416759901,1
0.6955844046119527,2478.205868664805,1
0.49019511557851997,2578.078134188772,1
0.5214894937553638,2813.7328714898254,1
0.2688694596677261,207.67842456077858,1
0.6723259095399575,3458.1608263484595,1
0.7343445297702892,2946.0320297699445,1
0.6745965743187293,3578.5687609648935,1
0.24068527854155836,89.21945519244616,1
0.6142342552863225,2813.6219731663414,1
0.3254001918501792,951.452086320442,1
0.4603057643765169,1944.677166233149,1
0.7248329621951003,2934.872568217973,1
0.5271966332672133,2431.461895012912,1
0.5542608658884425,1565.0274086704912,1
0.5596729507486539,2533.8508620758503,1
0.4217771294839399,760.474923225723,1
0.6915074378016678,3923.1237530181224,1
0.6501646796966077,2394.526896834018,1
0.7977240456320996,4017.90273273739,1
0.5669282410819257,1519.8186515115276,1
0.5682191462309748,1700.846883829228,1
0.5261580851155585,1536.7006645365764,1
0.8053689869161021,3546.873212934222,1
0.48226634460754403,1514.6644964422221,1
0.6845907666311133,3455.919253095873,1
0.5340825591916676,2437.0467964549716,1
0.32111318359864854,166.07643124640313,1
0.4597919586932249,1832.491325095883,1
0.4742228628355595,1254.9613937854483,1
0.686204854556447,2167.5153173781177,1
0.5589440299636088,1077.204505278294,1
0.6001982956460464,3806.9772859510435,1
0.640641283867376,2262.078168136145,1
0.5621329649114835,2041.57269030912,1
0.726000472096874,3249.9094433251435,1
0.6701050655533495,3644.551234250651,1
0.6164089908393824,2294.1510414933264,1
0.5029803467596318,1993.7918957510417,1
0.2237617298983726,275.4971844638555,1
0.5519459547765548,1446.0084212724703,1
0.6211071826154367,1740.6210402083238,1
0.6177382427245486,2810.0410711316545,1
0.6672184060838863,2089.306592434014,1
0.690050247131949,3422.6383504705145,1
0.5679121088171939,1590.117955608541,1
0.434974750389168,2729.0882890571725,1
0.950000498597322,4033.1271374199555,1
0.7202910030654086,3119.7305705214817,1
0.5964778114822934,2500.9870764687566,1
0.3718687146716003,1942.6434772235443,1
0.554895391936012,1565.511812006582,1
0.36511444363129725,1380.98201311975,1
0.5961723993690905,2120.0878801717267,1
0.6998881115976829,3718.7473959499703,1
0.5147029942922446,2004.3209545054622,1
0.5441167430815759,930.219530315285,1
0.8571429428282233,4535.614391574694,1
0.756129161908956,2744.5519355012234,1
0.43650597783628164,868.6358584552867,1
0.4468140555834251,2197.973873784093,1
0.660993731809586,2723.39615405094,1
0.8252759393249933,4481.608021973046,1
0.3313529547490204,1273.237286076389,1
0.8457857642559783,3599.253628510956,1
0.915995538518248,4261.806572512932,1
0.5088818570157617,2024.9079740016623,1
0.7552031389827444,1751.5517255075542,1
0.5034991228775586,1415.8793628594824,1
0.5197225057547733,1948.0356463895405,1
0.5669819701251498,2701.7575728973748,1
0.8310242023119678,3164.1748757242726,1
0.6496514378345339,3564.6858897032394,1
0.6010229689152236,1741.338567871773,1
0.2900507329231832,212.0439355572886,1
0.5481306338253495,2274.668884276178,1
0.7272245315956419,2601.64508452869,1
0.5824558491250046,2761.8049277237938,1
0.533691961658878,1867.1747129549078,1
0.7104161493097225,2437.4079250119958,1
0.9059036750615451,4341.657928106984,1
0.7140312953100509,2764.9066759039915,1
0.4982469910965611,2137.2657480016073,1
0.5037584033809502,2197.7913386615005,1
0.6089403757276334,2266.466087806607,1
0.8378969245742461,4490.118166593885,1
0.5146949878619587,2683.6584951356604,1
0.6324841217795685,2238.7265630996812,1
0.5594592893688379,2159.4707539125848,1
0.5770513615825952,4032.951548512854,1
0.735238052376942,5022.668173528366,1
0.6123091451139341,3299.0852294641923,1
0.5860182296139349,2655.4424777342347,1
0.7713685979980273,2427.5535006892283,1
0.3853444136850767,218.9146582441135,1
0.5841038277936591,3620.74947948436,1
0.6171843834725365,2882.0624794936693,1
0.5940382928446165,3022.910877256717,1
0.531352610340781,1503.006464376889,1
0.6094141028829747,2076.924196049812,1
0.6425696974339665,2195.2160797097595,1
0.7088566536218198,3930.81793885964,1
0.7116691923518782,1959.552970661369,1
0.8764639082041452,5062.266965757235,1
0.619845764567194,2755.2792419208536,1
0.6128207681972796,1166.1708286062924,1
0.6091718256691173,2189.082696752639,1
0.44444175826904914,1875.0409253266107,1
0.5130908062092161,0.0,1
0.9335391496934251,4625.648309423349,1
0.6819698113632744,3408.138088668559,1
0.6342416303550698,2983.577242355786,1
0.5738383872819682,2836.75566857575,1
0.47293846654940036,723.5065792080086,1
0.6412309049858241,2069.5704400225013,1
0.7289193787494799,3455.3146346646713,1
0.4656796176794582,894.3265391350642,1
0.46284368836282547,0.0,1
0.5607119878550905,2141.3898489254316,1
0.658608285048485,2603.528739916669,1
0.6147911099911216,2842.904825803496,1
0.7019489182094287,3698.994654681872,1
0.6423892470750399,3595.8540178834223,1
0.6651111101314685,2703.573605374523,1
0.7001136826201181,3896.940293752285,1
0.4990937086554145,594.9802781579145,1
0.5670746558531674,2971.196056312653,1
0.6374680924727152,2883.5470941370395,1
0.6141059206447789,1009.575713100344,1
0.4928091374291318,439.4421508389106,1
0.3164938146957521,1598.035071922413,1
0.4956531854547283,2129.3044308942467,1
0.5418605919358089,3302.2343369367754,1
0.4970811660605007,1801.5082606962994,1
0.24883221598861688,1653.7114552244118,1
0.5368804807203039,1822.0977743597105,1
0.6589853317236886,3900.8556385735133,1
0.6056286790637886,2443.1715625147267,1
0.43674075652615935,2238.5231745594597,1
0.6000715669809681,2175.9912971211725,1
0.732055912493702,4219.681402969709,1
0.6188039090601681,1252.6955967532906,1
0.8740963211714755,4272.827616804565,1
0.712811303676595,2471.855881756756,1
0.5960195264914547,2500.018196444913,1
1.0760258777799256,5430.317092278701,1
0.38633563272458843,986.8588746150683,1
0.43268553426273704,2191.43681753552,1
0.45944324835038064,1206.8360200183547,1
0.9213888753496553,3555.3386350226956,1
0.7685888928291545,4671.1488301178015,1
0.7760193120709139,4046.890438751697,1
0.6662791171252809,3704.6192458258856,1
0.6324579335703756,2521.337224738587,1
0.6056025823944524,2016.976972172601,1
0.4931452748854952,122.15360771735237,1
0.8179024348936349,4803.275006129753,1
0.608383232787651,2878.0935992731447,1
0.4366011762903478,1876.4593678620354,1
0.7573061367072111,4019.5180700228316,1
0.4024746491227008,1368.4689256756312,1
0.5861974628348088,2974.0532307446942,1
0.5501605690550873,2564.792889858402,1
0.6808479481158382,3351.3222878002953,1
0.5313740532791044,2515.2460752153715,1
0.4628106057273086,991.9179554454353,1
0.6079318155391484,2512.937897118129,1
0.6811083837209074,3506.2614815787374,1
0.6080733909022472,2706.3343779016677,1
0.6220382373355285,3457.306495528526,1
0.4934433552309284,1273.2348587709218,1
0.6523059478140795,2341.82106377013,1
0.41410434603524343,1627.2163872729916,1
0.7922959372357864,3565.7214758798204,1
0.5345861759792594,2734.721034341917,1
0.7235947371059602,3484.853092753267,1
0.8716471760935269,3963.844832478534,1
0.7676700722511951,3443.748197597618,1
0.6156677028917126,2854.046667168004,1
0.4402385082925225,1267.0693529221176,1
0.6811053054701204,2738.721437188029,1
0.5991347106878026,1785.5473434829137,1
0.5232116262796498,2161.1190947310774,1
0.5006683637744355,1889.7564195088498,1
0.31676021481556954,1192.2295028912165,1
0.3647179478145656,103.96277946776682,1
0.5212297798244806,1537.440666661247,1
0.7512005913519156,2891.625707404651,1
0.48734173413568566,612.580695178006,1
