HeartRate,HRV_SDNN,Label
73.57466787767622,49.15520979308963,0
69.08985967301989,57.66894042056568,0
75.4899800757812,48.43517557793849,0
87.78238879881086,60.11488436364529,0
75.6443589100762,27.859693453259496,0
65.80341964480218,58.96767065303078,0
92.79623064391598,66.20118084114824,0
75.76598692979465,45.430446824570645,0
63.06712007816606,63.57350825860074,0
81.51857352757571,71.63790235389902,0
71.97550496191347,34.236338358245376,0
71.5997521481107,56.33394196013562,0
67.84063567456963,53.08699581507422,0
50.53744266306176,51.63905656652824,0
58.865764634886276,76.54199084071016,0
66.58483391040974,61.82382627648452,0
56.50322456566844,52.59186674743925,0
77.43406302157995,28.949053757131278,0
59.34572294983054,64.58169388802065,0
66.84958722860814,40.358683924512746,0
94.38069500130683,64.31951440866862,0
72.76272412691249,64.83357049343411,0
79.4803155707281,86.96728303238123,0
58.076474888482345,34.660615052077226,0
70.38336022662325,17.20850941617882,0
80.49782737360904,56.51622916195883,0
61.71755763474854,87.478550068531,0
74.4810443258853,82.28586240687395,0
57.47050330992638,62.07237839499829,0
68.66739487345977,55.38109023595407,0
70.10004980051758,67.308177275395,0
95.25094898292753,37.078357113451055,0
74.3868530812127,69.9305146527823,0
58.7163952356298,76.30210355787807,0
70.34134127629393,70.92292391163373,0
57.3154880102661,107.50587148420013,0
72.5669115947778,66.10335655176357,0
50.838653925252174,45.68708800592214,0
61.81092129590532,53.958858810359274,0
83.89699441376543,33.54278529346648,0
80.00231180915956,47.55699159404361,0
72.6300238661174,47.29619854451225,0
69.54740811109714,43.66847762485409,0
69.61088687864569,58.0517264408733,0
53.07331129458373,48.63274605592258,0
65.40255070978318,76.78345624685137,0
69.64767397206113,57.496916186272564,0
83.6196525800616,60.8699311543782,0
77.72389256570851,60.28171285161967,0
56.53833649311534,64.29849281005542,0
66.38135628271573,71.7699306130666,0
71.33352798781385,51.63340679763994,0
61.875705768628144,45.32900115278968,0
72.63756707338888,54.31951187057327,0
76.78773608568453,38.80649646989993,0
83.48050924352462,41.52636581196331,0
62.49495013164935,50.75731608540832,0
60.4980323215608,62.7410393062144,0
77.70282338999705,73.49931017334364,0
74.55741061722945,58.2167797283316,0
67.90736441413816,80.69404008962614,0
71.3359048617271,58.12984570260651,0
65.36453566841494,68.68129340971313,0
68.94635769152755,56.0076747142579,0
73.30187659443928,65.0200837008028,0
85.300031005393,54.51106833576845,0
69.89822230897558,26.740504697824473,0
84.20407740872504,61.85967951757722,0
76.69470410514444,79.49955849130322,0
63.786071240265656,71.49143267116712,0
73.40944511202987,66.51008064252954,0
81.79811138873946,81.15805588297795,0
76.58104752093303,66.74175742103877,0
89.94245746613771,71.03964401067358,0
50.39138994807824,52.261084741387286,0
78.66704436137466,51.426508295051406,0
69.58629333890956,60.75108653011984,0
63.61835116219518,83.266600222949,0
74.71219568405833,48.92692303089733,0
46.9253447313499,51.544140638509994,0
79.04659646645763,58.88638524313073,0
69.03291280965026,68.67082554468162,0
88.14724104347768,38.521190758176076,0
74.65157135333246,26.248023484779303,0
66.91051276738716,39.66513094723361,0
67.86079812661353,41.76259316063825,0
76.31160294221127,41.230019164730955,0
68.37866515375832,61.444385583192904,0
70.55264850691754,50.42564808563674,0
84.6634105350083,71.00182939094444,0
70.77652554108954,60.830148082107925,0
75.99114236724714,61.65673869823916,0
52.68862190848139,75.28660524842604,0
63.81955431570963,43.900691942039686,0
67.51063425618322,77.30890153305693,0
65.36046672286248,64.7696438730711,0
78.3268712318106,69.57648781899574,0
76.13597974533266,47.69308130955969,0
70.05053625991896,40.112924079418995,0
66.73830007996874,65.83599740252836,0
64.87453056703568,73.0110607796119,0
68.79723947613836,39.367717784283876,0
58.0598513751272,51.54188702826882,0
60.60952906829759,69.29615658169338,0
66.09606272448177,45.16500554774845,0
73.30918852225805,93.94966868959031,0
93.67641231353072,45.425795697530916,0
73.20855371934715,68.29410066986001,0
74.19117687220933,58.122922860349476,0
77.82290664896452,67.40082918642243,0
49.32998239807614,60.92968348700122,0
81.05585887494458,58.51906765620906,0
69.24576414255483,59.01294008983219,0
97.07841210791572,42.26576052379949,0
68.67037237517495,66.44762283043679,0
75.63256909084092,49.16302156913878,0
73.8758422783132,54.817634301606745,0
62.48239582424906,42.64656401337941,0
79.6626414920473,18.274118747384822,0
73.90475693962989,67.62878971275966,0
92.42617842495902,91.03875594174629,0
60.48620375404984,72.50222725670123,0
89.52400530272092,62.67369935278845,0
49.94328281946121,59.20717753979465,0
76.47050733847932,60.043953013268336,0
93.26855933818757,67.0032738683916,0
64.45871209833228,44.545545226564855,0
52.72475199901258,78.04743366992409,0
73.82721671626807,69.43592555778109,0
61.216536181998535,62.96339302699686,0
58.115094245313294,64.23751747047967,0
67.50398376386947,54.561499046872555,0
57.09954938311104,66.75712078917066,0
75.36778625438548,69.04332819870547,0
57.544110309645994,56.48307005586772,0
85.12167181649862,60.29823716300852,0
58.20058823392106,58.84081253441074,0
59.613532579449604,87.10843044880357,0
85.22495743584349,42.94319398738067,0
53.211113371540804,44.46710936691235,0
73.38119490800138,65.35255621652588,0
88.83588295029321,55.720908391408685,0
52.85044714180751,53.984894819099964,0
69.72050908659534,65.21560646696503,0
75.73001838582134,54.00971119097596,0
85.40789783140887,77.44638284927825,0
53.78391656578683,29.64855180018688,0
58.04469470907004,48.37742211623209,0
68.55694268133234,65.98971709433111,0
73.0038417139209,33.308806104157284,0
74.67595192614915,60.313535488895546,0
71.19135888619442,84.41072073483231,0
62.91479361508894,53.86638687892246,0
67.28140313007279,67.13457030333234,0
75.31611778989429,35.62406830227444,0
70.13495706415208,50.86271203237566,0
85.17202576259525,52.66445222011441,0
73.62497037635596,59.699660721484946,0
62.59969626024442,73.9339019627031,0
84.62598968295198,70.31971544988667,0
54.78723423668213,39.129143609201016,0
79.02692235034476,61.14204561483615,0
85.00160990167166,49.29732508975127,0
63.28289486333866,87.56272843590854,0
69.24980095805778,86.46089496265677,0
78.63325931590884,40.93684969289115,0
87.81728335539812,42.21385889017996,0
91.55123858238699,38.658088351884054,0
64.39058857349998,60.07409978749254,0
61.89700212460369,57.53495098877039,0
71.95442104202273,74.10209565236484,0
68.39170985464841,67.71394400767552,0
74.4291159977806,49.53255547133833,0
77.19358266583832,62.67829507754938,0
71.46122243234534,58.489405551838445,0
79.2689765870814,94.50383897387546,0
71.7404052403865,36.5147036956564,0
89.2832123518954,65.30429095798088,0
76.89802613895496,88.34976661339607,0
104.79338234986183,66.60015409491717,0
71.15975169866987,55.152764360476525,0
64.54839928034241,44.842410614163704,0
64.97489174522836,55.33760925386158,0
79.91902580315504,75.75905447076444,0
66.6192033298044,25.41610126907025,0
93.71055101976273,81.70608522404174,0
70.34695343407986,44.62775871227237,0
65.85576864010102,59.476678694805706,0
64.70003822562383,54.87766113339706,0
67.43554302796062,68.81357198989782,0
63.35387622580894,30.73384467745381,0
79.23484611499975,56.02671380290075,0
79.5274058063805,90.9304444062667,0
59.45330143844145,43.52559594897613,0
72.05878998586034,62.30392309793299,0
78.68133830672197,47.395995719117366,0
64.52401558913664,68.71081891896661,0
78.68944498763923,59.87055565811455,0
79.0394316297868,58.806417324205164,0
62.105312321720575,73.48172598340753,0
77.03653723037438,91.8627619319178,0
78.67840017511301,60.92511369514004,0
85.27616521499921,64.34553205996545,0
82.81387370970634,43.91587414219555,0
58.22026390881764,47.53508413596275,0
68.60488520498498,70.11821781016148,0
84.73093357386182,84.72478786210473,0
69.600094785955,67.59801317102523,0
77.20058262176332,68.80846188990066,0
107.08384273932104,59.60844273159072,0
76.15404777450131,45.92557089460089,0
85.3682374504826,66.71278084401048,0
84.88720949264437,77.1882038542895,0
77.95328029500125,57.91524445866607,0
59.28060587998254,54.771498169284214,0
74.76446430205178,72.33440815666323,0
68.75424620562511,49.027823777588985,0
55.92968182242525,56.57190607227155,0
73.08350028011895,92.55772726761518,0
75.42489134708593,60.69864875623116,0
101.7274660743852,55.52204532615634,0
52.33450213967772,56.715668098025446,0
68.5555747836306,67.85443021766746,0
58.02465449563598,51.57874495428568,0
73.65394696229737,51.800046107861135,0
87.51311499724076,79.4336591035267,0
69.32934277351445,84.00836366949567,0
61.65635759802017,50.8566350595869,0
62.182781563500704,30.301801776473475,0
74.6996451683999,74.73801748893521,0
69.47327653872789,49.87479708756587,0
68.17692433949395,70.33447748819988,0
67.98663624613008,29.432782502705326,0
59.9638683565799,71.37099338955508,0
85.98820327675801,46.11574666013531,0
79.07126168239313,71.93156680852687,0
57.55608937583381,71.49785837839035,0
72.94015936646795,46.49443146544264,0
57.85339634949529,51.14016795445499,0
84.72405604667237,83.64815372866585,0
72.50330138584785,63.656548685300194,0
67.62142396459804,73.71681864155136,0
74.65710145621597,92.60712368374475,0
83.23585509211819,39.65143097082297,0
68.10640466836749,86.93645888129174,0
66.05581691296437,56.05491623896787,0
60.58829798339941,48.35588451296014,0
68.62380070562492,33.42098909466395,0
93.64988276852246,56.29137995628182,0
76.08047436178569,70.19666439605045,0
56.60049415836229,59.87411412358061,0
86.15051312550798,84.33795519040139,0
95.86174199286616,40.63809410305255,0
78.48247502099402,61.25514864605462,0
57.051773996988224,38.17997162487122,0
60.39912161121425,64.14946079261613,0
88.09856377405583,77.90529165773192,0
63.61213749689791,59.0278564812562,0
74.2596401195386,15.202876657460239,0
79.5819681085312,55.32958403938419,0
62.932233780870405,62.91663135997908,0
75.8793967472098,71.29045923458672,0
42.54277925593538,84.61115302824749,0
60.97407719269309,39.31063540325841,0
73.29265923466338,71.73978835043843,0
61.525854448809575,87.05976935287006,0
86.19111485788618,35.39774362610392,0
57.07499542921124,71.90229381495013,0
66.85844068881457,57.43093538530042,0
75.83371248873192,54.226166372335754,0
84.57761981705295,64.26524013558965,0
55.68933255609744,52.86534392975595,0
93.47542406871939,50.38504575268252,0
76.80100801893138,65.09393102951321,0
58.38191016739479,45.734734728435,0
79.4757397123437,29.03161834783164,0
74.5823472840106,63.62639787888392,0
67.95558710471252,31.831184897739945,0
73.38472747272571,70.87151371691485,0
74.09507725880857,68.14130764014807,0
74.8632751757697,35.52902386119464,0
78.31086325413902,45.04188887639209,0
93.0711210463686,81.28236107131053,0
60.78827021717087,48.863829515247424,0
93.93772664320797,46.75819072933339,0
54.049235017205554,59.600722391534084,0
70.01410393281233,71.75019920810423,0
77.92930702982311,65.18582807739936,0
71.87644573354096,59.53606079061859,0
62.01716870367466,84.15256972771788,0
64.92592556401506,82.4335115990633,0
60.110074219426295,79.11708405916985,0
61.70776562363511,59.017650814430155,0
79.62468579787563,44.03847899201705,0
76.08574277187866,36.82349974354155,0
63.71442123165525,68.34962257072462,0
69.21748130369572,63.12663656764338,0
82.9459269975778,81.50613079183897,0
85.56102180284151,58.259962906856785,0
80.52508767532176,38.30292883652117,0
73.24750325354562,63.62360844598564,0
61.511369010611745,50.46879185662657,0
88.91106165436264,56.84988709139015,0
73.27763227058192,62.35967923665248,0
72.98467368681531,92.74861164716987,0
66.8040872074168,101.75840702676265,0
84.85011943560608,69.4627234651172,0
68.01511860163365,61.22592091149586,0
76.6975221560276,52.54613848175131,0
73.54746069611176,71.07870958971992,0
70.31826021516407,55.07676496596025,0
80.37569487798436,85.946702249956,0
77.4200969008686,70.73657051900805,0
84.18966522308487,61.84664071175649,0
81.78607792250845,66.88306756359079,0
76.78705326875227,56.74445402767459,0
84.9330886771093,80.1355407634099,0
60.553763122334786,49.50975148875216,0
80.90629546138959,49.433429250626006,0
81.00068294854665,43.23527309387101,0
74.22997845593682,69.77369760145501,0
80.94699118084324,73.42086457026232,0
69.00281978951107,80.10601406006373,0
91.5464611809595,87.38706594223193,0
62.85122730269233,57.589832571718894,0
53.287116224007136,67.22434114626795,0
84.27428387765293,41.660692095826235,0
82.40718691785206,46.6843198397348,0
80.8220132851539,70.6323874009446,0
83.6105787106307,76.65387219219174,0
68.00352138085321,52.52367778192108,0
60.3644225017742,54.88911094070844,0
82.23558231189405,44.811619531259026,0
64.47674101606033,47.51214620479503,0
82.75136627073914,63.016655570410286,0
70.19437597635252,62.86356552336158,0
59.63662390054977,59.80782223509666,0
76.9037876379291,62.677735628237315,0
73.49080748315322,58.30242487717478,0
60.72632685342561,48.996747682779095,0
61.52409465782193,76.24709718791189,0
64.42834210629145,62.85791986002696,0
71.19322838617131,71.25572977862019,0
62.08992525702707,59.66609135600231,0
70.37676009845339,25.42154371186303,0
70.953428175777,80.142404954087,0
61.958176262921,51.60834859722904,0
64.91778222158106,51.67885418355714,0
68.72143446891364,62.54473774082854,0
68.78858703858114,45.89224917558633,0
75.81464813950801,73.94270718616161,0
79.12863746877522,64.81046519835161,0
79.90769936941399,67.66999430085774,0
66.09842236003158,38.413031419756294,0
75.2814698267196,81.77922743997726,0
74.83846829984428,61.880455075678164,0
74.31397681994514,50.34153635819152,0
59.157712866025285,60.39326012633927,0
73.42103463880902,29.510745107492106,0
64.34014519134905,61.459764661896486,0
77.63025226871304,36.49434330938408,0
83.67332350198201,40.05733629345237,0
72.13885722861609,34.321083673746365,0
69.80461303639248,81.52171932102225,0
74.17689630368578,43.32406863431346,0
71.2167834891602,80.2954978735081,0
69.16260866370503,61.02751415750927,0
74.81698203527922,29.69158305061655,0
66.12944211220803,42.06946714028949,0
73.094031580404,72.45795438597725,0
68.37375213056916,50.91938976704508,0
75.86165005343729,59.51224546807938,0
88.16450238340245,63.25547085097755,0
78.76595849834659,68.1951352337013,0
94.24885438047208,68.2794010629558,0
67.20330799372013,83.52119538893541,0
85.52627252972421,60.39058004313284,0
77.7909072372483,45.85667001291207,0
93.03897701316335,57.139688731181664,0
63.183858276230474,58.25677971076627,0
75.3483243683174,47.109233192805796,0
70.75551888680623,48.98066107895739,0
46.15192447530086,56.18460029780377,0
67.24239060202014,53.66381676903431,0
62.73295769057205,64.93274153989101,0
72.82726669514653,53.002798862858604,0
69.27008396923117,48.801074118806525,0
88.7020922202291,50.111610132321296,0
90.56201724783007,73.82949316263989,0
69.12634494775348,79.43378479389204,0
50.56004624575912,29.13457544925889,0
83.00280917755478,49.28325457951836,0
64.24581554433938,41.77120504607693,0
88.51816113701145,48.492966306617966,0
87.38071892612895,58.837193184011014,0
63.011247424866944,35.012713556998776,0
52.517376127759434,54.430297546549696,0
93.0314555450034,44.33927972214869,0
69.49595134812527,58.49888831509825,0
75.02950480995966,57.461035486170005,0
55.739207298149644,49.807789705651764,0
65.61330780589049,66.41896894098203,0
78.04427984404913,45.12066450543841,0
72.54148804852622,65.16347335982144,0
65.3914337280061,86.64515782475613,0
83.45378004963102,82.43919564170228,0
61.927746868679606,40.02033372696885,0
66.82609174195849,72.54228110494326,0
78.97794411982707,71.42953262773688,0
78.11269716317148,47.865030513890524,0
79.13077861428609,72.24202171905605,0
61.64312103867958,86.90422986865184,0
51.30551643556079,40.99259028957093,0
82.13849933809341,47.215660326347624,0
75.34105312895984,71.24532028145543,0
63.54181615931106,70.15507082513241,0
93.87366166930822,64.10340792499727,0
74.2437756065636,63.48394102470082,0
88.06749145382027,64.28563675164844,0
72.72216158698033,38.33316113696491,0
97.88892166755049,79.32224444653642,0
91.54104720729781,75.96056106273339,0
69.57746094215156,63.528761491684946,0
81.64929406474846,55.25547032214122,0
73.68156636439666,37.8802748113777,0
88.22089417600505,63.83489139370453,0
62.14974172151707,70.6857255383695,0
76.35055479907838,58.98738611012649,0
88.11655372255623,76.08999017456514,0
48.16152500629485,60.931216367818514,0
58.054935396180085,65.19737953312848,0
56.74627196629666,47.63761070770826,0
70.88354636015568,55.80191817351247,0
78.93612791969583,57.94811213225933,0
88.27858823671102,57.40174218949689,0
73.63801865944195,51.14451033596592,0
80.70284272428331,57.61719583706066,0
56.45267599111128,81.46395340823798,0
63.04878387901719,53.95255579372561,0
68.14790233714797,44.17468506825334,0
74.2491494188714,87.3453750215359,0
68.96494870251313,78.78638995798259,0
50.89050288301055,48.31284218641919,0
68.19318544825063,72.53070518904501,0
61.38901250574177,49.24177047231629,0
79.68329254975173,66.30516552696739,0
79.53372053650357,62.95038818566435,0
57.34649630578165,46.53871201439869,0
65.15962841221855,52.923380812532145,0
60.27925162304981,55.116554493465756,0
73.65144357771126,55.44683141774274,0
77.58531721897721,49.63338533751964,0
66.72100855793629,57.748708528847004,0
82.97254310776648,53.438547300231654,0
61.75306207809767,74.47988281228382,0
61.61690720290873,90.50009824572102,0
68.27003885899396,51.076063264117145,0
74.80950779919375,62.76317264519268,0
64.31400642048875,63.917554555751366,0
68.40934828489219,69.76734449741512,0
85.31409135363084,53.39802067758714,0
67.40438068889546,75.02067313970866,0
61.569722260833146,70.1729098995388,0
69.9113525501096,44.360414677382394,0
69.53722583229921,73.7284671483483,0
66.24641299106028,80.97425379665655,0
74.04495903676138,52.91067576445559,0
85.36743708283969,57.53368157483553,0
72.81395663646055,67.30403964367781,0
70.98830008542977,52.461923639236396,0
71.8694778064052,78.85108738036813,0
49.44450368154192,90.45739281309064,0
54.36293592468493,53.627170228392025,0
80.90295515066978,45.899197494421095,0
90.26465565217627,60.16219758932088,0
63.64148764170223,69.89569490392788,0
72.7959649846807,56.62010929914053,0
80.87706782645941,86.21882575216385,0
112.29205329316282,47.967629882200654,0
85.16222480517817,61.96631738113128,0
76.25310984666555,49.32118410098319,0
61.215354006775826,84.46058511530771,0
49.24716586698585,82.88438102308903,0
77.09549445176515,46.07460108672947,0
67.2829391635073,53.89548768312435,0
58.13580567342448,71.50042379049924,0
64.32239386704919,46.46993441012021,0
65.99557285676154,73.68924522106599,0
83.94275118358827,61.71171563415705,0
76.94749467504123,31.763373307568532,0
66.8797410530317,54.30280199325121,0
87.2243062020794,50.95761419889377,0
67.33421801592989,51.782088743795946,0
59.96594708414114,72.21186298845518,0
83.70246296156057,35.80111938573907,0
76.0860587751768,76.17270788958938,0
54.19066622471555,65.53564429502508,0
70.53263817935024,57.63942449777771,0
69.48033571947582,77.3709948322425,0
58.84945955194044,64.32199287561731,0
88.96838119932302,68.12646415488994,0
97.76415733408592,79.97766504609024,0
61.90299949804786,63.3442606981475,0
78.00312158009014,57.32193244971185,0
65.60607625000893,38.39092672470893,0
70.94774502416934,47.28404759873944,0
64.11770771009115,105.62403980201236,0
53.947488545864516,77.37180389351417,0
74.94523654996307,41.67317222395766,0
58.035155686214765,44.26601470719118,0
69.89386211684646,72.24203968555308,0
71.49873864548758,76.63832272177712,0
69.13489514356854,66.58605200613628,0
55.86398534800587,49.35549727249796,0
67.05974451498237,59.909359070028756,0
84.3846105625628,74.33724801831437,0
71.3674640249149,58.90351579462966,0
68.58686420625828,30.144729294105566,0
65.19246892864254,60.03173450373531,0
90.10049195557266,48.18611372281834,0
53.24964503636887,62.66279488884625,0
78.1616869079338,100.16173901044418,0
55.91359454811318,54.10391462001167,0
77.39530635358506,49.73780117409389,0
65.50981932316579,71.87550178410028,0
53.520368472857335,72.72743174525172,0
52.9091702359065,65.78577704502074,0
67.74802687397474,66.50763030364432,0
80.24985811490139,86.39322626267597,0
63.110869423945665,46.32070261265867,0
86.0896864703576,73.89626698432484,0
52.752387603335784,51.421461659614216,0
69.16522854666574,71.36343819392607,0
63.96780922535625,38.84163859579388,0
57.36676411196058,51.98112658170488,0
66.40666991239952,65.31017243087979,0
68.88329120392629,80.24700324974677,0
62.294774911585776,66.08930056796258,0
72.96767301563166,41.036286737307876,0
75.57371724513396,62.63950382830293,0
73.38783288128039,45.54550986363131,0
61.623528445064665,29.57640623282574,0
77.64346774277418,57.2388644687166,0
72.36254462348859,51.43396688506051,0
45.94696988288806,92.48153859975942,0
66.27311369269077,64.72099558075665,0
79.5422681793997,38.66735791541238,0
74.48714955858757,51.48297596695743,0
73.77400215918591,70.90079993683096,0
69.5226703433026,90.22559394487848,0
69.41925253432863,27.42313346441685,0
63.390890564015336,33.35632954975472,0
77.18917873819191,73.78310056387095,0
67.23365615703506,64.39676225839546,0
80.42395646020799,51.57153979023927,0
60.308362793482544,62.7227328554624,0
68.49413196252158,24.045934933033834,0
66.34479715144163,65.82929615956188,0
75.43127855652982,48.377817830159344,0
74.60819166779586,73.10723757518873,0
72.70561173288776,30.412693577470563,0
95.8120157942028,60.694265193195655,0
80.89906379122249,46.08277455419956,0
67.9796701501581,51.418036405560564,0
95.51198484357181,56.19399697495396,0
60.71253754120763,55.30856645076982,0
58.064413825408685,40.81765191773639,0
65.20116971827582,77.09394076484745,0
50.89445581658253,63.898700646638396,0
76.63145774679498,50.33483628304721,0
62.94363322995284,49.07629230605093,0
86.15553983625747,47.27635476319351,0
69.22686271629624,57.16658213725821,0
71.86941203626866,62.5439396936163,0
74.72873530589901,100.816902535042,0
52.053966643627746,46.18933341911047,0
73.42396350197788,82.35304715076651,0
77.31188222558924,76.30748831552432,0
59.15737377236814,64.7475632484668,0
82.09443231237897,83.3363482350806,0
69.94178985964895,65.34845826302958,0
81.85398580916689,67.20536080132733,0
75.89198274591713,59.755935802497476,0
83.61888317728389,70.96467269751284,0
69.608169101978,69.72210516412122,0
68.14582242113971,56.02904785713877,0
71.53711908480014,38.67632185160148,0
65.10981960331002,59.87891717424485,0
82.29692217439418,42.538821985423326,0
61.58904941172511,51.68140199753702,0
71.3189111369093,74.34358895760353,0
65.36877001431048,52.02764981984108,0
76.38383233678657,56.031947783904315,0
79.51328822969367,67.34000863765449,0
84.05577650510573,73.62407974076658,0
69.40040015955687,35.541353083040214,0
71.79904518831229,52.92153634887764,0
66.63457502908562,51.10650129459304,0
68.99781760694016,83.2813923786957,0
77.56724529384311,45.07370517505715,0
85.5139173724193,33.004377745428584,0
59.45311716820819,65.42225140117282,0
76.41734630129906,61.18311933993649,0
79.62677059211524,49.35298975079525,0
77.04892185033829,46.925715945792845,0
81.49929691948505,56.5953312945567,0
66.57287848926266,52.15182038017289,0
59.007487494383064,31.233579501322016,0
59.8859960100625,73.60175251493204,0
83.60085656256688,73.9986511222765,0
77.52706513645305,66.18503667409232,0
77.05516995736228,42.9123059617438,0
81.71536449708896,63.14991188461069,0
57.34434769825713,62.04136957423835,0
97.36642595910408,65.11484121035357,0
74.76430670817253,73.26697121932017,0
74.96221497415468,47.05246882393176,0
77.94478794240881,65.68197337213762,0
83.21700930798531,79.49425816087165,0
64.79032282468359,80.04320297748374,0
61.98960427154146,74.5756238960027,0
78.95433723522468,68.10888365044413,0
93.10636902449706,60.69608058298393,0
92.21799561462359,81.30469861241306,0
93.9229932324004,65.17802363917056,0
65.46013510915203,59.39874979127156,0
68.60330801506721,79.51758417848595,0
67.17192208011625,73.40280678200975,0
77.21168603684613,43.703905336455605,0
91.99452757681445,54.9675883058594,0
61.15007423712665,70.15890613887267,0
87.82435511222675,64.30978521611851,0
68.7610271553495,50.408273279266034,0
60.08823281922937,64.47637125750666,0
63.43165443696934,85.58527987057334,0
49.87534714148771,79.6935225372448,0
76.26603252154945,72.91404904604254,0
66.77945066820068,72.21939045851072,0
56.79842933930618,40.2307008287855,0
58.90936520692893,60.13431674234492,0
70.01022591292724,88.12998833115464,0
85.6876820758241,59.1260828632069,0
74.75050501833987,44.55721409890081,0
55.92754417886911,54.11208039973304,0
65.60395719281296,45.98242482396005,0
70.40422563874048,48.44472982630891,0
54.848897738303364,49.930304917428934,0
73.13285416749747,36.50717313489675,0
67.87637656104518,48.08549852083132,0
71.32475686754066,74.71309292778987,0
89.39249934459309,46.51536374153336,0
84.44029092091814,83.73165381007395,0
67.37320863817385,70.18347640573671,0
52.6078177213783,77.38781621652197,0
93.48077108498144,49.58056578898777,0
79.86487664458367,73.061218621813,0
79.30929793778176,36.59940941058946,0
67.32555328287697,70.4351092841005,0
77.34463154367566,62.82994536532027,0
64.66353195690971,64.61950042020995,0
73.28496134117239,46.666834894989954,0
67.75758982706726,43.28079196107578,0
76.42067479092269,70.03995033004236,0
57.990285552749654,46.357608220713665,0
68.2597276828528,70.67948234953889,0
73.02593195849644,43.99688877323783,0
73.70987317974566,76.19277624483972,0
91.61426887631615,30.982119271556694,0
45.81922536344363,74.25523980525848,0
79.91092032374505,77.02100512566301,0
88.35933283587377,47.13780130194903,0
50.96532517889286,69.91363306963515,0
64.2091992915583,59.45247554934943,0
63.68483018275366,42.17547962344817,0
50.53906097125987,41.178103411144946,0
61.67037732627593,27.859919427593262,0
66.4077017757136,63.47049705273633,0
90.41185343276341,31.733387979539227,0
78.7079454018594,57.76303715753343,0
88.73983064084199,55.993245150624226,0
75.0543375318154,66.33600671602221,0
61.186233659491606,58.18693917040218,0
65.85664547357469,58.46658646178083,0
80.78939874022093,82.87999929514689,0
51.89258005648304,70.65427009687907,0
74.8789955726506,65.95785464938375,0
61.40551772294599,63.937692363789495,0
66.95380831545766,38.43515491026341,0
85.16673720019706,72.9848099993865,0
73.91539706659276,66.62046646517574,0
65.83691865083094,48.66841005511693,0
87.95192015456317,49.3483028214776,0
66.53211451627753,58.18839150789798,0
77.71650073309868,60.761840530561045,0
81.3545868499333,63.56997876056754,0
63.51976290247036,80.43672971032139,0
82.15120189204825,75.53757160913102,0
70.23239570583222,36.13870589509018,0
83.84634914801264,75.20055451246176,0
59.72932052885611,74.84381143341707,0
63.981618482820686,67.39292444738746,0
85.5542188667155,78.43294586920138,0
62.849148108740586,85.44094717946665,0
64.2763798076149,75.72116446350843,0
59.374494586940294,59.191468070902424,0
74.52772200962741,82.63153948655103,0
59.35703052889343,56.4794028115723,0
85.0787757166482,57.08906017811451,0
50.267781529100574,48.60766142251611,0
86.19159748073761,76.66270674814388,0
79.98398367319137,55.679646465281444,0
81.61292916545105,85.69938923973454,0
59.394867465731735,68.19942898460829,0
66.37527971247195,35.72752256123627,0
70.39779086649459,70.05279845010517,0
75.4409403260218,24.378490188388376,0
73.37333450497499,73.35081672411604,0
77.24769818364841,68.91591586180668,0
75.83458736419557,47.89212215584084,0
72.43751655636574,65.64462736992334,0
74.1122415646727,93.63149822703312,0
45.006391490568326,55.401164105554756,0
58.64907152487186,38.868015615367014,0
79.78907724297446,79.99131670832485,0
76.90343845234314,90.2233015639545,0
66.61772612882775,55.809030268167255,0
70.00907632947462,82.02675933177181,0
68.08580577709579,68.11240401321048,0
55.14593916248605,44.96903893507847,0
58.674467291992954,50.17257995513282,0
66.10682347971174,64.24339937346218,0
63.89983370095273,78.29406852944669,0
73.49185727381042,71.56966046532567,0
52.28297830724765,46.95420288023401,0
77.36949114238038,97.67159678570613,0
60.563147661568266,59.76156876224463,0
82.10185108687651,57.13816517544795,0
76.8255572255712,66.70125876234788,0
86.59264409537623,83.64206185361611,0
74.86923982373474,59.5342295588859,0
58.45090940388672,59.250184938798284,0
59.92137501782961,67.45270546726627,0
61.61998779671387,63.73284857339034,0
70.29976244538821,69.8204417784683,0
85.56748981531557,17.594273996007168,0
64.37771470905895,60.2379195263005,0
72.95899995669124,71.03204916752489,0
59.73926324577045,47.42473674716409,0
56.41191621771901,70.74284641512575,0
57.13319566362105,54.136802695432124,0
64.39509310051405,91.71180608823634,0
63.98107626547501,84.32408907486113,0
50.9987847977284,55.57069410583758,0
76.91093633096325,59.564593540623115,0
59.60230565889832,58.283350988672055,0
98.3064164055079,48.92509548199415,0
76.20801055116678,62.514691442651674,0
73.23991780851239,53.55957705410026,0
65.4569024910376,40.833390949372564,0
74.48663324019437,73.80740467154476,0
70.91432894879074,73.12829711641552,0
75.38736035495101,46.44057662000097,0
96.00168406204756,80.37433197953688,0
79.04394096219808,48.7486007065665,0
91.27481344071559,71.34521288363287,0
69.63271252471017,74.4757950968917,0
56.557331242191424,59.416481937176734,0
97.60273181994498,62.38210678042875,0
69.704122034482,51.81225419101121,0
100.15652876853397,56.03420368110644,0
85.26484231322245,50.62062661054037,0
74.26704562854376,47.71324768830808,0
82.7173516414571,53.32937165277784,0
88.46901048949486,39.70068436193771,0
88.18871832584416,59.16409617150944,0
57.38052649298646,49.59228921797873,0
56.86747552136066,64.71884235440392,0
67.98750914440924,55.73478314001267,0
73.20539370591673,54.19843007740549,0
78.58115889736457,70.98039667233186,0
67.5442001785354,70.88548372071259,0
50.491218286924095,49.84483821711852,0
72.09616516688548,39.930595948102436,0
82.14455523275899,40.285644157028955,0
85.49960333342524,56.31194134408561,0
87.39064532443473,53.28967321828142,0
85.62635798105973,41.26680004614191,0
76.18772292646659,43.31355065733124,0
62.58793059688371,47.1302758327684,0
53.114287760426556,56.95509843833327,0
75.00236013196397,74.88847301242005,0
71.5916144374527,45.656954707324125,0
74.98926269882686,42.22280838321103,0
61.43961304126166,49.21383279209782,0
65.45451053713487,58.0090952969727,0
81.14092921149737,46.1852948814472,0
62.08565143321049,67.024415231867,0
76.40061837727056,34.37035231608196,0
72.50173574626453,50.84195870369772,0
78.41160100562449,71.89718446070495,0
78.54379884883944,55.37636534329057,0
69.40227085982328,102.61987954309306,0
74.411647267587,68.45760538790154,0
67.59674977856652,41.14092224320295,0
72.3077043222998,53.44936406727481,0
65.60407278155071,38.442176068854,0
71.34540546811955,53.83669999046501,0
67.15300966789408,44.47083944123578,0
81.35682873026671,78.16739894570117,0
65.59398843307797,51.9306020487621,0
66.56532203655576,49.262792924925776,0
68.73421045598391,59.201928101701526,0
85.96891499960354,83.43271648390014,0
75.04017758899927,53.16757205869924,0
80.01973841937115,88.76727691381986,0
55.44895479699614,75.33766041679436,0
75.15054899867783,77.03652236648813,0
81.90668048704093,57.230656462734316,0
72.80183031579847,70.0367205178735,0
91.18161553321893,34.79995978006624,0
61.87343090528986,55.130924533368066,0
85.77245542709224,76.61373804184593,0
87.12083612560758,63.93791233607115,0
70.23202178894034,32.01233837301135,0
61.96874210410821,67.96276577074211,0
85.14229349179412,77.76777147814165,0
85.9353998306505,73.02679432682693,0
68.17585536147317,57.761001491389045,0
65.03417724131552,83.89644172180658,0
66.20562542292502,52.96111154571229,0
65.73477721008672,34.282256747345166,0
64.23631448753065,53.2934031975795,0
59.15333807236798,81.94174081479561,0
63.06785598990257,49.99792020790706,0
79.87992588748591,54.26306613318316,0
73.16632293410971,62.35638622490568,0
84.05862181237883,88.91637382887079,0
58.591478841980134,94.04267502571224,0
79.09759157981796,96.97137813303279,0
66.8876229456113,54.39027716203181,0
65.10712366172946,64.68974885353182,0
73.12719443693115,32.98427116797873,0
56.626177912570164,78.81185123853027,0
78.781952554106,64.87872798610975,0
71.7583356457662,68.34475600660849,0
75.8887041946113,47.84595203054071,0
81.24212656535266,48.05109602237924,0
103.02803714880105,55.288983865659894,0
64.21197544179817,56.37894909882742,0
63.535712896564775,61.32126589955418,0
61.44644316738467,60.94153881811609,0
69.90910765693864,65.104562236217,0
64.60259255932338,37.87786065771266,0
81.95769085946156,58.289182327889826,0
82.13671960421078,73.54968406792119,0
62.44420501744829,53.91931635360101,0
65.27673522642394,46.39719937830689,0
70.13696423442772,66.90512332610882,0
71.45211302612998,87.21927753581883,0
75.66009495848051,62.87930649390516,0
73.28105048725403,61.80841666163497,0
50.15766905932491,74.69882290402161,0
87.41322232208879,41.21208495656736,0
88.31717201750243,60.174315936516415,0
65.6217101008738,65.03926769072287,0
75.48152889244962,52.15976227752437,0
75.74714413620025,48.453741149020686,0
71.37127197914124,47.14592760012188,0
75.02884317399545,68.33734833968481,0
95.07770131723234,81.05313124423175,0
76.72399418002662,44.37777405914969,0
65.42661765837072,68.9326019411208,0
61.650371442628575,26.496513955883938,0
67.73938821726433,52.23064503946045,0
78.76405233804964,64.32116523309742,0
80.19762777154772,40.23274987916734,0
70.15998170616092,44.545936114808214,0
79.15655973590681,49.39063548282238,0
65.1421525085946,61.811546067042386,0
79.45559181444875,61.689212204569166,0
93.01541051559545,22.824589706123064,0
63.04736128890988,25.412495713262313,0
64.69702032014014,47.347426667382045,0
83.65462283596543,72.32557584799729,0
83.14728815209996,16.325206797060396,0
95.87365804620302,54.80427431214332,0
73.65016654742072,61.98480765838906,0
64.1835640986145,80.45097457137379,0
84.48565750700422,59.784976224472835,0
86.3207554829223,74.10160519157957,0
80.61914602131863,67.25481490151401,0
79.43942368884781,27.95749622300329,0
82.51772798663433,74.73364704446912,0
86.3158793196948,56.79405461616759,0
84.14125642784657,63.72381380436908,0
79.83112354809258,115.87018968838531,0
62.77608894498398,39.94136650839258,0
70.02821539020607,81.8075271751403,0
80.68003378113185,51.55090345268552,0
61.95869312409307,59.090328664800225,0
71.05416681483027,62.116375130135175,0
65.39889374761098,54.34956196237376,0
64.71537791735757,56.88630096155144,0
87.52802100804749,68.29892936398191,0
73.49842308564206,30.340445316304475,0
63.9383274426814,67.22229866277463,0
54.22728903746744,60.5837276681003,0
81.14554279808304,42.0324686915106,0
75.73973207948181,59.18776622015285,0
90.1478399323641,78.10883351336201,0
68.54925426542961,47.13169155331405,0
75.90949095253048,63.86050038481077,0
67.31207455191175,44.19540688651942,0
90.52517520372415,68.54106393684218,0
67.0455782680936,71.2872446146793,0
74.7005754164544,90.28715795129126,0
77.90186439370784,49.41558420124028,0
71.23076064036472,69.94298203382311,0
62.417365123841144,58.537934415285406,0
72.51246718852175,76.19600268315115,0
90.86296904397369,49.88093728153443,0
54.92647185357124,68.42282032971316,0
81.79126183699314,63.990230532483146,0
63.70018599522561,64.97748672462784,0
84.12732337469161,67.28542873643579,0
51.33457689523861,61.30905496894865,0
62.55443444389671,53.44407017857401,0
73.2575705004551,63.63084739449847,0
82.42676543795385,82.92002903200144,0
70.29790760241576,71.73762947211145,0
64.41292527403417,67.15864665411864,0
100.06547640658457,52.959317263301585,0
51.689990067435254,44.64104032531277,0
50.52539301754212,77.7712435587564,0
77.63937591004245,76.46623214555432,0
61.627855013214706,87.5940591633783,0
65.22180930595705,44.64381285106137,0
77.09192940858539,58.562061708062956,0
61.97605887979665,31.770409030950123,0
69.65846175315555,48.010862355031485,0
53.61225159277924,72.80554647394816,0
75.48569855210594,58.34609421225012,0
81.9415221940486,67.74560516015994,0
69.27243395011394,64.9697267098284,0
95.05523071323415,67.60524800092509,0
67.34998281356506,40.81417675786211,0
53.52010598914112,67.07838388904057,0
69.0472317809627,17.35994429706058,0
67.76683582948061,52.5337606853367,0
85.59897407888779,44.836914522175476,0
66.12285439878063,79.38731186363462,0
80.65099116994298,71.75509125139513,0
63.70355588750344,62.72240137996313,0
88.01808515127728,88.71278474542939,0
67.8257724089909,48.35262932443398,0
82.41597085617423,89.35663887020958,0
64.65931289905427,71.44521674627693,0
77.6896323834491,60.62217355126615,0
79.44574945746398,81.59337017559817,0
77.14458269548001,40.061706119919876,0
63.560696742212656,40.54733687867994,0
78.96334307587526,53.778019448099116,0
70.22475678277138,44.19859963101107,0
80.54833224183035,44.911714247785106,0
72.54933758534266,76.11002048249334,0
85.55005319463883,62.21051004839713,0
68.41230466242709,63.323355071517156,0
84.87819245259365,56.98109436381381,0
74.64959552202654,30.11990326995711,0
60.06595950301897,69.05081540116939,0
75.16881781329745,41.617883087887506,0
64.27928126982292,53.63025361688677,0
89.56015461404355,40.935453026162385,0
67.9397386494255,103.55305206801245,0
62.696486351584404,74.00338496713543,0
54.34612006922461,61.895248220220445,0
71.23935369288033,82.89809490157512,0
44.82066373908889,47.510664658487734,0
61.60733299979826,59.61606070719863,0
81.51431509002303,68.6585933799754,0
68.14560989818159,53.94555915067909,0
77.75293550453928,77.0013442459098,0
60.30009279664429,77.02451028748027,0
74.20878551128888,62.548142799161425,0
76.6850488103534,31.70820599425354,0
61.392163343783665,49.99562509664084,0
95.36024418739498,53.903792061892204,0
79.88008848293923,55.28945701619,0
72.91444737697273,44.41951406735756,0
76.29357125813205,95.26053364161335,0
73.59709823501186,76.52754525785937,0
55.476522855646,72.21653750586161,0
66.55486123898318,63.40299094714234,0
63.06731542491593,55.018090368454565,0
55.421356449369284,44.264563069041735,0
70.39604265299069,63.51417148782872,0
91.60312364776695,69.8180952009016,0
84.30474440556624,39.959625317229005,0
70.24391012395145,68.28608872371417,0
76.30185003032442,60.49711535305176,0
80.10265592918864,35.77942309538402,0
83.41058884172756,47.2907708320248,0
78.15006956127495,49.23428942834355,0
69.30655709196398,86.00281909410302,0
84.40462076042235,70.06256419691461,0
74.87540619822629,49.06009835540959,0
78.6188373593991,64.87044622528316,0
74.66721125566069,40.81437738356152,0
82.21604482012538,74.60008355492229,0
66.25469390455022,53.4854740021625,0
86.20732879903885,66.1724409152304,0
73.32950876174645,83.70841262023501,0
92.08447007761879,34.48605010753147,0
61.22465155424361,36.18085210424718,0
94.06773309940995,57.52711682701672,0
74.36169814584503,76.28507297843221,0
64.61360029242911,31.465608269768047,0
63.42399539321077,13.422903803472861,0
62.13696136610137,56.75008473742088,0
82.78148042676588,73.24816340475196,0
80.00154842101404,78.09320275349332,0
58.14341074776438,65.42914857339953,0
75.57216558093846,57.94936271053815,0
98.03510943728419,76.0911056656717,0
89.89731231251176,27.87534426407197,0
84.35379117549911,49.29776684905965,0
73.46363299229641,64.53346495127771,0
66.11619562743665,64.29439559470848,0
79.96102473254577,60.72161837205388,0
62.99656085657959,67.84817419017692,0
66.40975038187578,25.840422436291295,0
58.18195344561123,44.231292950207795,0
67.65390489509849,63.441536325554985,0
83.42479353424135,51.54397711488531,0
62.777526858979,58.06943232486845,0
82.81513700731517,72.3137961816381,0
59.1732195084392,57.23478160230733,0
59.521115838119975,62.8155459890145,0
75.06413850356687,42.04484745605362,0
78.75768719725966,56.42961158693554,0
86.30883045861924,70.10148231821282,0
61.745945634423286,67.51728890603212,0
81.6634088261636,46.773352953372196,0
76.99002137754748,62.04916185173132,0
70.25241231237243,70.94326251921069,0
85.133670648664,32.56427260976865,0
85.80023547276515,72.84378928672459,0
53.29598583497267,48.37332995534785,0
85.83253723198213,69.7521747571537,0
96.65687784678698,70.3689582799449,0
72.96609004480443,45.849793115353854,0
67.59601270531232,48.578754476172264,0
78.87604344313192,47.9341141504922,0
74.60953761993754,45.841596086116105,0
70.62921401583961,87.91966680289832,0
61.558872483194214,44.48491315482322,0
67.54641742988218,51.76694705181874,0
80.34693661612559,66.76622730257108,0
74.57635881495216,40.956805431920564,0
72.37047751318401,49.379500941325375,0
73.81098124073904,63.26687893189343,0
40.40150429390265,62.08129461655863,0
74.54259505121384,67.0245188431667,0
59.638451329280876,41.960387443563064,0
74.73074108312439,42.73808490824588,0
59.16793389941963,66.07463675026537,0
57.56343841872483,90.94390947030936,0
85.87437738519968,57.52358316041343,0
74.69539802377237,54.537644211205816,0
77.50809255512675,73.3132852699902,0
68.04308449883258,36.25515624538593,0
68.676295412299,78.59625771451982,0
67.19258759728511,56.442925033974696,0
59.536175009676626,87.48242239841332,0
78.68603057846744,49.70176739728615,0
68.03727269834067,91.18325894774074,0
53.66956093222132,74.97270868300357,0
62.42811623386882,66.19093346486655,0
81.12243974907776,63.15799894590994,0
88.31398996800108,53.71488308497056,0
72.95841740183963,76.95633601278064,0
77.1600127159555,57.26912435781537,0
71.48340399160168,32.446375915564396,0
90.61752279253422,48.617806819303745,0
82.43605913476523,53.12924856800386,0
76.13507646510186,71.05633297449005,0
83.40704339177019,59.71878014889128,0
74.17376969488754,79.48995672893402,0
54.67505744537289,22.236324441383033,0
78.06017657062448,53.117507499748726,0
73.73900713564814,33.45089343309109,0
73.27689293924414,75.34434505542256,0
78.96741512501698,55.2262170651452,0
73.33659796000364,74.64461908327722,0
76.34000609292455,50.71643546242509,0
74.27573096045053,74.65026771632634,0
66.25086018116525,75.7801132961503,0
52.948335317031656,81.13781021379538,0
83.97114409988033,51.844421283049854,0
74.4715390898654,71.3392089740025,0
83.83444006095165,47.782888716573055,0
38.08077425689186,76.36781633990324,0
88.05461319332746,91.07858164645071,0
71.78768932358022,74.12797295613095,0
86.47457644048042,54.650524311424725,0
52.226612451236136,76.52727673045635,0
80.73784222617952,40.93425053034145,0
58.749836866381756,72.51029810510606,0
64.79827995650489,63.80684734192171,0
84.44272392084268,32.0490514521736,0
65.835089791433,41.689866877773326,0
79.00495535944879,59.737596177136474,0
80.86499417678861,61.51048347167224,0
75.04292687117825,41.30957172313063,0
72.92174728828059,73.50279516894737,0
78.09566914798376,71.42234134191582,0
98.23662833319945,61.320231736221714,0
71.04867702768014,46.08299483901592,0
79.47578602163301,72.67146281254894,0
87.35885714460944,80.76919992287424,0
85.12211947523181,57.49240809349275,0
84.14336197015415,44.758655205230866,0
81.67390769588954,70.75230325173497,0
62.14128798170108,49.22401256467464,0
93.6383156820407,62.026772589261356,0
65.03435295350465,71.18089518952287,0
69.9350851453017,38.02785149668974,0
59.02742564609788,85.4818077643964,0
67.8523688120497,68.26553492495067,0
80.1683175533694,61.13169642301286,0
67.3320271706465,59.37964185661925,0
78.19299448789282,53.642474993184756,0
89.94982814605127,28.76936517333923,0
82.34858330857077,71.98983076521884,0
70.46012710041295,55.20155531691881,0
74.92482472996407,66.98915024523387,0
79.0979300860058,71.47497565448482,0
53.81394423914095,43.78188511454624,0
75.28428086683289,69.56565558283543,0
78.09721958598935,54.465057346189305,0
63.197157335294804,67.09241762618448,0
93.11037808637764,27.82542035691041,0
63.87303726991252,54.02113306251674,0
79.98628165402783,49.60375767834526,0
76.195096914358,73.19782908162735,0
76.64730322425984,65.69813629004216,0
57.56841609356423,58.24039934440833,0
59.311745569941564,56.475571972049195,0
81.55819496449662,55.443492928744845,0
68.08492169198547,40.994747758193,0
61.71615259775558,72.36698462218094,0
48.41949779102943,60.22853081027275,0
59.491658289823626,13.944222179031936,0
46.38157147277994,58.918120641983606,0
83.22744731618492,50.46404263302085,0
87.66216187149088,31.66073451627279,0
63.104329405848745,38.058344985218476,0
93.67771376786784,65.20443723812959,0
85.0954266613582,80.68885017193132,0
77.7800305554951,61.2674594752563,0
53.63096612599246,49.14154693616597,0
90.04775070682649,66.48596516392345,0
48.39142247517701,45.28937322193782,0
67.3440838259316,53.409209994966304,0
93.57066237839366,40.29109903180928,0
97.33979204553914,19.803986779733712,0
79.49028695719608,54.03178956006106,0
82.45522386999329,58.66294605433444,0
77.40762498658981,66.99475591129004,0
79.96924997227002,50.83327097618978,0
84.0615801133933,40.32559227165523,0
76.48378797406026,71.66335622508461,0
67.11293648444403,36.94078436076331,0
69.7503590455949,67.74313770139096,0
67.76611875463996,47.51425163022116,0
71.74451034335735,43.51113490025665,0
56.38051472983853,30.71185384976758,0
75.68371850443182,61.10895780718714,0
60.30550398940451,77.52718056517291,0
61.857455703937646,66.41337490168752,0
56.921046010646776,74.65894563191085,0
83.67177189423192,70.36145997958982,0
85.00268060290135,48.31163982011156,0
54.34302162818251,51.25828517851158,0
59.772581675711066,50.12774569306647,0
76.20044712100807,77.42510267953442,0
67.19195552826264,41.10326408104221,0
72.49598486773262,74.20892967816118,0
81.62759397936094,73.36091518636817,0
53.6854856415742,91.12213751725416,0
72.25150484513142,56.29013390613551,0
57.259190012067926,63.143986346841544,0
64.5834650274951,87.43566151275543,0
72.11768162283559,48.88679142219809,0
54.33954130578323,46.11752259922373,0
80.65297129313726,27.54189032887553,0
62.239365243994044,69.64956688485621,0
86.41137338432374,29.071016744338635,0
76.65834696577892,51.64499228549076,0
85.42974482143738,67.45089652510968,0
77.78641575834371,69.78151943342696,0
60.446770862905296,68.66151496216553,0
69.89947050456777,59.31669302987736,0
76.8276031284111,92.94913475371693,0
79.31640255541794,46.108120393723674,0
72.17343400640603,46.958968141211464,0
67.23035647785818,55.47059019432559,0
62.42309584480988,70.10752408822006,0
60.40815762684052,81.82054710086317,0
97.88196539674168,62.41516583494429,0
64.53900110445772,84.90255694795576,0
64.66366808315152,43.33462531076276,0
68.19338158063537,91.46362283677922,0
83.83682854248046,92.35740786919159,0
71.5834415755661,65.37129350607994,0
90.03718753103938,93.10584273535751,0
70.78748227674865,28.10613236270637,0
74.1541486378636,46.897356179819084,0
66.85592477479128,44.95340079080853,0
91.53601667193492,73.34037303724946,0
55.50865382812698,44.41296829064211,0
73.75073832375034,70.5267468192481,0
77.95637805062307,81.2892185550625,0
67.83008602862502,73.38449144772736,0
74.44878620830653,67.59750597462929,0
56.86516588965375,50.65273406456442,0
86.01219941722272,56.39740957195673,0
78.0393756526967,78.63747171724262,0
80.33374754708753,69.08479024792541,0
94.15236181873239,62.48238785526278,0
67.93994151785807,48.010082732188536,0
55.35616826426452,26.21936124277129,0
72.08027525442213,48.93411845169737,0
97.07709348803488,88.05064443300734,0
63.491890734147866,34.752204143172804,0
89.29847337184387,55.39318199149034,0
82.20936914899444,75.35524299489703,0
66.66196620358829,46.885642664805665,0
78.50706952494015,68.41338600937218,0
88.92821433806495,74.62313557712402,0
67.12956881294436,70.2320369240894,0
75.65348527882324,102.50194400529921,0
64.4149280861058,34.27817299984002,0
62.98906222718729,63.04374839956318,0
71.99371221896766,55.17115919324696,0
59.363716632275874,75.83887749709261,0
73.41315101993001,74.4394139597872,0
63.8183445078391,44.851483875013635,0
80.52470808572546,65.74620753335535,0
55.152420730032254,37.36587339064213,0
81.7255752085856,69.10475327455039,0
79.81735014285391,53.055974702221725,0
47.76534495704536,70.8163525275178,0
79.13743155134632,79.67892799661172,0
82.75335075595464,60.777183128053366,0
63.00609430858376,60.950568642602214,0
75.07870194375836,41.006494739436796,0
76.21621640313518,36.46595080236247,0
62.65185494862851,82.93604136159824,0
66.12601579076654,81.52628841658041,0
74.81706411601823,64.4167184388441,0
69.89153819266086,64.97665216832999,0
77.14763095021078,44.659735566766265,0
55.956631762781555,77.17544937848963,0
75.27497714165935,72.81213930922755,0
64.69392895697914,93.95267863073495,0
72.29238187125212,48.43850699601398,0
67.00586663149716,59.85784724117416,0
70.11751284717131,61.98834515451122,0
90.54337931302526,64.71162533195813,0
92.26379467004922,56.44093916897987,0
75.59537121769212,47.931508096875405,0
57.48445242746863,67.21343596015713,0
72.75324374467566,64.13342001745062,0
87.67230809807884,48.49281997391127,0
77.2955456344775,78.29985775973032,0
104.63970767106821,76.72377610963903,0
75.99002793793619,60.215984130212775,0
76.05127396313124,68.7969724444566,0
64.00689410055762,74.61967236871361,0
84.01201466770262,40.887685495960284,0
68.792577030149,57.786506122058995,0
77.54000712608175,31.96426817071026,0
79.83327371290463,76.15651586806025,0
60.91562610169882,36.37031185172318,0
55.040485220183974,76.86329640161381,0
51.01942485451941,51.63549835973552,0
70.25093362887071,54.2411574333009,0
57.03974433694508,51.968963064327916,0
60.21590962771327,64.19805266465505,0
79.56406176351649,77.84356900327991,0
101.55951605796649,17.552693914197608,0
77.82533482168564,78.6115484071831,0
89.55558056632837,70.22904711909591,0
63.961180828256424,34.66026044833825,0
64.86168789165588,51.13848485863617,0
77.17214652540426,84.2857385975447,0
66.74860557566551,42.14579678929216,0
73.17107618779278,34.69879590724982,0
72.98209029792993,80.59232200257408,0
66.41564002922978,64.22243716808103,0
82.09690044909131,46.78464376572655,0
66.63622845715467,58.745315926012466,0
53.5648045201337,43.01822957414072,0
72.40075490881055,74.0794147445654,0
60.26912691552675,75.41759894620597,0
71.04641438965268,64.6323313504501,0
66.26047273700529,57.754011115269144,0
80.40492332583368,100.06032059949365,0
71.0920453863716,53.17827367413581,0
71.1206336548069,43.17918315340068,0
74.81220635018978,57.881969550364396,0
81.65755220832081,81.30546855996683,0
71.03468240857293,45.26774006147355,0
71.3360227205849,55.44989643843173,0
54.54939882673641,72.55418552553371,0
65.88278470262343,61.18916146999244,0
70.97700428991783,44.51639270061133,0
65.55561863748896,72.07986662313203,0
66.14285948342659,102.29567117142663,0
74.46910077555259,67.58622811560973,0
80.75043199031049,40.207328265217875,0
72.00845428041724,36.95541076525105,0
84.88352571559668,64.58990087595019,0
74.94293073847527,74.82989186671553,0
56.81337042430145,70.9867686264647,0
63.27447313949234,64.12260807795808,0
73.93744670906872,50.208496734134876,0
55.919146408243044,42.21319928024036,0
75.70729548389808,80.01606220821088,0
89.05432609084887,78.37076878259498,0
85.89811592476008,37.175855149180926,0
72.40363040541415,75.70153947730999,0
92.40922582989316,70.33106884493519,0
66.36181871294406,84.48433700177524,0
63.75687755076813,26.09547563073141,0
67.01383656996187,40.77198491035855,0
65.35348497610141,55.682000419511866,0
85.00707302103453,66.43749500278015,0
76.28276031960556,82.40850758008784,0
73.21408556584787,69.85023725520877,0
69.45311383611484,63.31973872872616,0
73.96857028149827,42.372469390934036,0
84.0571660544393,83.27787638475317,0
82.05545101751952,41.49776251934123,0
54.8675245920334,88.22080928486503,0
45.09502741838094,55.742509534012115,0
88.06462198856572,85.61885523321416,0
65.25373782910096,70.21973563137661,0
71.01251588074754,61.15319382056917,0
53.59257110322272,39.371128832939306,0
56.67271140739502,47.78725527252096,0
85.186039490103,68.51015287567178,0
86.44045711283837,50.93965567378457,0
69.90702525678114,48.43992710073337,0
53.20169185498001,57.24382464005227,0
66.80447687987028,57.037954757722765,0
79.058554903194,24.61118157030895,0
53.807006480632815,68.23043272259844,0
75.29492647857012,50.350656408146946,0
78.49457272812268,37.90776704563979,0
74.84579793857642,31.814543812402494,0
68.8885865368201,29.43530766534642,0
62.756755286302926,27.561388693929263,0
82.83240399802492,50.07324458713018,0
73.6604428750824,93.972475792041,0
69.46065697516548,57.19502089815135,0
71.25951848728161,58.31241971181678,0
61.11879699827961,59.74873055499421,0
69.42064679082966,62.07400553119616,0
66.44629325922526,62.98471652194243,0
80.13717112850331,42.84484578756325,0
59.47036435243077,83.21043640355698,0
54.591346091163174,92.81710429324944,0
81.16365643542093,31.064436792006195,0
61.49987876990502,43.53972070333916,0
65.26746867704355,63.97587242315091,0
87.27823133207986,44.547877460859,0
68.86861206806358,61.25279847200512,0
90.5436303796657,45.72913648264933,0
81.17349657948137,87.78494176099284,0
66.98481525665368,79.6440418436603,0
86.42446091750318,58.70887544153933,0
58.83838084384939,76.75996521410221,0
78.40511107516967,72.90818027265638,0
74.18965937223456,40.92389498713521,0
89.2723262865218,49.28984026678014,0
91.40163308614227,61.914464352279154,0
75.34570656945242,75.51333094601337,0
63.064407731152265,58.72096988397499,0
69.69646057884047,32.44733039033816,0
67.28320198780906,49.96496763314509,0
94.75971904157707,66.48550490873923,0
61.42269599843894,58.920855982644184,0
64.17509355396561,91.71105813208284,0
70.3915311716796,37.602242441886496,0
59.12048811032022,59.86568601816969,0
58.267057451065014,87.17384372069463,0
83.81346623532106,98.61381737677274,0
64.37838250852109,57.48790877811655,0
60.73514281549196,66.4617145990909,0
73.78455605676913,71.53168585667241,0
80.66211627629659,67.40103496023852,0
73.78819780774721,66.61811540619395,0
83.86081406092731,71.4822613657379,0
67.28756225726222,22.33541484687291,0
53.92880358195487,63.68977607381762,0
94.61653699964009,62.67096004328821,0
67.2001943743684,57.94576352757256,0
77.14259795443233,94.2480818123849,0
82.07130554933256,56.645449014758846,0
67.42941121100942,53.478107603740646,0
78.56986684537783,100.37823548213656,0
94.89274897460577,38.722645327049264,0
65.73678667273649,53.84498011826004,0
78.06723888859243,53.80201668761711,0
72.39727012154174,63.07490723349922,0
72.12962549928493,62.10816572880391,0
85.77293643246657,33.324756300611284,0
81.28651884172162,51.210332062928074,0
78.3040469381468,51.06352974228912,0
85.77483030975792,64.43439136833406,0
67.1911301714422,58.84972920562775,0
61.89781659758606,70.81531216654845,0
55.78449540534645,33.850225940672935,0
50.486251043398994,81.1033605814608,0
75.95649852145752,61.62977681479371,0
58.016806511255,74.10675778009137,0
69.37809287818808,60.57547827828074,0
72.05023527246158,70.06080709770086,0
73.73067759046623,69.38725043635517,0
81.89573983661796,87.57799645411473,0
69.70579157664623,65.00900190699058,0
65.88504135327587,61.67694779464536,0
61.93126889756886,86.46931051602512,0
68.78428192658633,74.23716308008488,0
68.57726099884522,71.94897939675182,0
94.45477569956769,33.61480987554062,0
78.76578333373281,39.65596839314766,0
79.43993284618377,67.97031793455562,0
78.53116073933862,47.51396473037623,0
80.16659410883092,57.46542683338397,0
71.09029852017365,63.88313737363614,0
61.16856074779552,87.41304215924065,0
69.07007692530395,68.36744072228066,0
68.45170131349681,34.27125994588215,0
64.77129784690817,60.9976823744406,0
81.99142556189875,47.51255116012902,0
89.18829800049679,54.34507853103318,0
63.84729570483192,59.23379994155013,0
72.18042630985356,56.64563563025291,0
84.74451100664926,50.77915650584714,0
65.34389196951997,58.85445092159464,0
92.8541647607569,48.13482325833476,0
89.86137568264215,15.116185415422347,0
57.43992188950402,92.87289723021797,0
89.11985605407409,81.41082740821497,0
79.95707604891946,47.02031936893147,0
81.18831173578508,60.32497382200482,0
76.82295752932937,50.472893075428416,0
73.5576210613638,84.23479881215037,0
61.944548654471525,93.1143896959422,0
67.02305734859807,64.8159935597779,0
55.944829605010966,80.13226269540506,0
82.63357143889647,58.580498976009196,0
77.18003568249206,35.922110066533136,0
87.07035057760096,53.92400892615658,0
76.51338761775631,54.3178105653778,0
58.82752643309301,51.83308118579005,0
77.05967122072883,57.984584126052795,0
90.4010512970386,67.55218467211215,0
65.27942855837405,60.80041347836719,0
64.84627613663201,63.91001971182776,0
71.33866297489892,49.913303239301015,0
61.829007962128046,44.42146981860567,0
85.60229902467286,39.90582270264553,0
76.64611383761003,86.79429620431247,0
76.73294944122426,28.019684760472586,0
56.73139894788271,82.88600889366492,0
61.495955679566165,85.6139303448082,0
79.29942988620049,48.07672262332223,0
69.95328332568874,22.50534006762019,0
87.39652441570378,55.314078931516775,0
65.6027902228178,60.68703151986989,0
71.28285109162563,41.070464302111,0
81.20893851751117,46.68712653331556,0
45.90253091030436,80.57287798284601,0
48.88527873634369,69.4849324491051,0
53.6081826270623,52.05646052233008,0
90.66335700903142,45.122566554696554,0
62.41235033143088,62.07772946696932,0
98.48433356583855,61.09907436365265,0
67.4902377680811,62.4212864989518,0
80.33509556027418,49.925768436537645,0
93.7339865604995,68.72212389249292,0
91.77341403761665,85.86511541052256,0
90.23761206041677,75.11854359930369,0
80.76449679180297,62.88110293130985,0
81.03530914578572,59.93419324702793,0
75.75510272039384,59.775576010089836,0
82.55174780845753,73.18665761821681,0
68.5896919241407,55.25444183119145,0
66.77701712150201,57.200113384398755,0
78.26267398307132,56.06328876500185,0
79.6124993817516,55.133817778758925,0
68.09103647376503,45.492384592733394,0
84.46119333154542,67.28468498614508,0
79.79475116653403,59.18896054103197,0
78.80910378083355,69.05437617205608,0
92.08284659643184,52.6781299937489,0
65.62518870837991,72.68256500151875,0
70.53375461316044,40.63529255709775,0
61.48998597401751,85.2864748629011,0
46.36199163994202,34.184736531422594,0
70.97300710396752,66.57821286019204,0
78.44758762741307,70.51196830614892,0
85.58527292560095,46.98926040006506,0
82.23374977284804,69.18080497743946,0
65.97788875930262,78.46984620977015,0
89.12249455870602,35.86451221987136,0
90.79206114285113,67.94474074599445,0
63.27767331228363,34.30455075267722,0
63.6214076178108,47.2750859026062,0
57.827446150972904,83.3691096205731,0
64.17935712495252,46.77602961782082,0
84.56880095297133,35.17735766357694,0
92.2960520746156,52.073722643248985,0
89.40238814359692,86.62056352663333,0
70.09191325279969,34.49886639397049,0
56.05330282138164,41.599524470108896,0
67.31798213507544,83.39611051046688,0
56.29720475441081,94.27542696494942,0
72.08051677361561,58.009489877471474,0
62.67159891017346,51.80999295443438,0
72.19635640402498,85.5585976254414,0
63.02847885984353,83.16371813436331,0
84.92180551419047,67.4876401983786,0
67.60803021075449,52.496497796223736,0
63.430492122761635,48.06560173559885,0
50.12671898399306,50.37902233843848,0
68.51777199937648,64.42603545697885,0
95.27590438696791,89.5219101770175,0
89.98957331619475,74.32046478724759,0
71.99759569585024,37.08162157390746,0
66.90834450076187,74.66161378684193,0
83.16902610949025,73.0619306144221,0
63.13376442082477,67.20031294390255,0
67.59802370085757,77.28329602693022,0
86.92043594542051,50.713159060451034,0
79.53167853398251,64.518101347338,0
77.26375028642005,58.39847994594575,0
69.51204809102873,31.731899218189074,0
69.10022905842293,57.57512145900199,0
69.40503953393522,98.33918072057988,0
71.88592595256158,34.074464497782024,0
78.21633165629743,61.3387998527821,0
83.24898934829532,76.99906370431661,0
53.89908671179116,53.17733757480148,0
87.51853678408624,62.601554468752724,0
63.708443109214834,35.02862932757605,0
72.64226277524396,67.77047774840666,0
58.81317047660569,46.27375682215421,0
41.83283769114021,23.08131544586914,0
88.86512647238001,74.86936977295994,0
84.71567591154528,67.14773629374783,0
69.1660115040971,60.97705935193353,0
73.59375042349383,59.57275336978326,0
75.91981204832595,80.04626134523481,0
59.22392331103219,66.56537525683582,0
63.329201393793035,82.00104858593366,0
84.91134811055805,57.36940440459764,0
58.19167156323695,82.28314491400957,0
72.83634434251015,71.81228494812933,0
58.542747046190165,59.77246567395463,0
73.7085656747072,33.50779260520436,0
73.28699692450758,65.30480811016761,0
53.1618688943779,40.40750889151121,0
85.9900115586659,62.695452466699535,0
70.7341169265769,55.0468570356529,0
60.30086719581532,54.82635768801953,0
73.35281468583358,92.18380592857007,0
85.79302705946426,82.72295389833403,0
59.662495035309,86.5081353724007,0
74.93840130261303,46.07119873460031,0
79.06515930656444,54.9910901884081,0
84.34736495410296,27.88191967456467,0
70.73446532234769,45.611023744601205,0
63.61584540801441,38.95072787066479,0
62.186210845694085,85.9833937774211,0
68.02267713272826,63.13494210387518,0
64.10110090038141,69.01104464334469,0
36.97773866417187,75.52039138143397,0
88.03068013284012,99.3115061990757,0
87.5189877187307,29.95945322930976,0
48.43355449258319,76.93716094214389,0
66.2396654178905,74.29579444538832,0
70.00753328849802,49.13929442273048,0
105.19182135411478,68.96310329257231,0
69.25686401575163,64.54781131709602,0
64.11748351821186,53.1581835809508,0
60.891369153009414,50.00767361234572,0
88.18020071518633,48.129398069822564,0
60.008637423369095,88.07095291708691,0
64.51635874132762,58.94375940620185,0
64.45119261355698,81.91216418717245,0
57.07799424276116,46.05201109438976,0
69.20489565113488,43.09717971525648,0
89.37572475512322,79.14693998452896,0
68.82333786681617,39.03873347961223,0
65.73240662361924,46.69562382708857,0
72.39825421716695,71.66789284209581,0
69.380491287405,59.90819429966754,0
83.21904186923662,55.4242534549509,0
66.63531981898554,66.73647347597934,0
68.3596300137322,79.04342018331137,0
104.0890207092115,62.62083654929497,0
73.24040433047833,46.5928721170853,0
68.99738033273282,66.17403434003617,0
68.8237914530157,78.5650863318523,0
88.0237190165169,67.24303791709069,0
71.56048515388949,36.31512396298077,0
64.24472131543261,66.30661115406699,0
80.3598614243443,36.980640837577155,0
60.462609798920106,59.00734430882524,0
101.61957966738656,92.59976423835181,0
73.6755919223409,38.60476510573076,0
63.83308741688785,40.26656246965099,0
81.67502435819915,69.04644328016815,0
85.22008647055685,44.04812088122162,0
89.56203117195474,50.85304774929326,0
84.31696889115572,70.39567304155939,0
61.883140138209605,51.87611026252659,0
77.69539169603426,62.00649010476908,0
84.14136819501647,68.11168219203626,0
73.5385635304502,69.76461679548959,0
68.86199227311107,59.847862625155386,0
62.20144134989021,64.82952909055322,0
74.97709728630272,61.548961207550875,0
91.57704922533564,53.73206328311055,0
64.36712910084766,69.61543321632702,0
74.07819356060452,52.94496178039195,0
85.96484870313587,58.89572741561155,0
78.75120605103712,46.287202089181385,0
61.68995261879369,54.02292485586927,0
63.92550095813718,55.901781690964754,0
79.87176450537139,47.75701427701565,0
75.86337169123037,70.6746669741664,0
81.53294275153182,60.54944219231278,0
84.9134608525673,73.82572374780443,0
102.82537833675974,54.51995876754697,0
85.25216375353665,71.76080583355888,0
73.75528323992782,74.06320424325304,0
75.27872193141116,67.6368611322645,0
76.8612068936369,40.02543909875161,0
64.76470305522265,71.13876166950628,0
65.59592289953677,68.24204160927061,0
81.01378965571095,57.06549179666342,0
90.63866452412111,30.735545815767203,0
64.54680040183706,54.851876617339585,0
81.15580124574485,98.46473092831386,0
80.76205817847156,47.24335224724949,0
67.86323663387735,47.97467107198477,0
58.521492114007515,66.82250064369872,0
62.779566683278944,69.87987171690904,0
85.47706028680938,78.42375086341808,0
68.00278115270245,44.30679202942943,0
66.22084782754602,70.82986924637713,0
64.25861938598563,68.69540116405055,0
79.91823081427346,58.295188197633294,0
69.05042501679966,64.13502016456347,0
61.54383782727835,67.00901100856818,0
68.37012184846066,69.24311323194362,0
61.45663273357297,44.078584524452566,0
73.30133135168748,71.05676778388867,0
77.84614133413318,58.25062551360269,0
64.77591881456608,59.47634312303915,0
84.25508954459272,56.779962901366325,0
85.3874958302456,55.28085786314463,0
76.46238169816,76.341453734663,0
62.89415767534317,58.76994630497107,0
71.0840305158699,45.173699796601035,0
70.32443546199053,53.19430070602537,0
72.72262684028584,57.532144473695034,0
75.63327930000708,71.44781156486185,0
66.1241045353396,82.03360631110863,0
86.41167561375634,41.592895667471524,0
72.92313901692717,94.68472374386147,0
60.01177504576047,66.55663117723937,0
73.31058860972027,80.93516411781363,0
75.9466273787128,60.32861195914943,0
75.00825890100607,65.78680332292086,0
76.06332925812282,73.78481792097381,0
88.13242374341125,78.57963899751816,0
56.1945496168952,74.29986774296694,0
70.74797820023234,74.31000370995136,0
86.32126077881051,60.55052676584191,0
58.84871559462526,51.31280825348246,0
59.05960497390691,64.91137688664509,0
79.28313439875417,79.33772625949597,0
66.5155853526638,61.465991287444965,0
78.5249660736867,83.89726169053321,0
80.03226478597789,73.0081000098948,0
70.04119265969808,50.78078212974565,0
90.84609145120392,50.45408967006669,0
78.66623304136124,53.46611212765363,0
73.33591356103892,65.87212961283217,0
74.93241100431345,57.38710353228423,0
94.11071494131775,76.13724557058016,0
76.30562978478459,68.57381506789079,0
61.761664958270195,64.94847410226618,0
93.08041898911154,33.106259329314646,0
71.0165115350287,39.551334291361655,0
55.97723354212201,65.71998063743915,0
81.9392608077975,24.030408079962683,0
69.57432580474511,70.79379514919334,0
62.73800583878453,56.952469325101326,0
77.17507199676696,112.65459312843944,0
70.23012129150433,97.8374137652022,0
74.86252664250195,52.97120031535554,0
76.36565221663146,61.66578438760871,0
76.06220674144909,70.7540238291979,0
64.38802406928335,77.49674015880339,0
77.59244666833065,33.5938462832236,0
71.65142369552096,38.81921487760838,0
69.8150353205354,53.949280677391144,0
79.38141744091774,68.733204710742,0
69.28686521857787,65.36957643965867,0
86.86111155386307,74.09776114417559,0
73.17210972793976,42.54846160382436,0
93.04194892931515,19.91565462623771,0
64.61490990175933,71.1296762035257,0
80.73567988438644,46.49920859872264,0
76.48770461420578,22.967309741912945,0
68.00516997785321,57.98371493490285,0
76.13525036497568,73.95016928071206,0
55.26691115143599,58.21670221788581,0
59.763257196778866,51.588465251295744,0
71.0866935542056,53.05242933012158,0
75.37540230866124,62.32550769193434,0
89.78014084227027,35.589397247500905,0
70.86381748145673,50.53775388145221,0
69.72473126637554,65.37985313483824,0
72.15743835644011,65.00657458383918,0
83.03842897547948,64.80894579920417,0
67.09179898975476,38.22148982615988,0
77.42861205981002,57.24437134719755,0
83.84653435468823,33.297667548256406,0
61.840994888672114,71.48465942574086,0
75.39479053680326,80.78279575092785,0
73.732264124821,38.096424055452964,0
48.199277885686755,62.267750043241335,0
86.15124003316166,70.61122308864793,0
60.828047605783006,75.70621667013616,0
52.384767419721896,50.181713501067144,0
74.11524746998482,54.3989923699479,0
91.91374433041358,25.4109672135301,0
71.10065428008345,66.99020569631585,0
90.17039237486105,92.3026404209112,0
90.1915535946234,66.7489807496055,0
86.36139543901957,58.382146294844034,0
88.74067920672812,61.68211064027273,0
83.5112354070056,67.14358409511257,0
64.06590539778921,46.571098013330676,0
56.407061658630866,70.29452335229627,0
69.1891429000607,62.98573750727727,0
67.19462818262691,61.22930944259457,0
92.77091914560796,40.21538395722901,0
65.04746970486329,76.72826150798683,0
73.26880144244335,66.88038081046635,0
72.10065111606296,55.93258896252471,0
62.80971340078711,70.59755996522962,0
92.58612281173498,43.75759813543162,0
68.66881424612883,38.434474797803674,0
76.2815292723403,41.25255256441711,0
71.08993625274857,40.24166271791919,0
55.47461543627332,67.15416870369334,0
58.72673837709087,35.03907225896076,0
71.27948314547565,44.25578116662021,0
65.96947625629785,29.147099455783604,0
60.8643116174111,58.33504812488006,0
57.537579595842686,62.96782524501262,0
68.11091854269013,55.82953637376774,0
47.77276984290582,51.35682197625843,0
77.39467618292723,45.520643424899724,0
67.14252169582575,63.87656658579347,0
58.58272536340531,49.256050905023,0
65.62773543829809,61.108050790770776,0
70.03659331479943,52.809009817890235,0
83.21107544053113,60.69068637683847,0
88.80141132529099,75.5568065757428,0
45.493144393625954,70.39137721152586,0
80.67624078586937,53.32795719489028,0
78.27727429620242,65.33082711821473,0
78.80735332104436,65.83909190151601,0
80.74659708405456,64.68355680006522,0
61.72193099237842,55.25088698928198,0
59.47823096908587,50.49285499068909,0
60.238319238857144,60.68158781006945,0
91.40657571620976,48.65485001899726,0
64.75771686866206,38.90661239684125,0
91.00951326718756,49.87671317418361,0
71.56411132855484,36.0680162456221,0
62.35106111105631,41.98500158274024,0
54.64524807468615,59.05871163727205,0
54.329848908621564,49.09187605150033,0
53.34782886027147,61.91420793085529,0
67.56097402427518,71.34516917679572,0
78.16240994701661,37.05919332168925,0
61.55492589190352,74.74611598931058,0
85.29824573402826,65.2098346549266,0
63.12071214621655,46.11912622976595,0
67.21179054296712,72.3483051334949,0
86.70126687178035,50.11805343565071,0
88.80735070763363,56.45451012805616,0
72.5426839157394,37.78205511913224,0
66.6079011298183,30.843722521951392,0
54.93113074563443,51.240552983362434,0
66.91229962016872,65.787959984429,0
70.49174034979096,44.42973890166466,0
65.439739211728,45.519137324955786,0
67.95659980798685,47.53999719339069,0
65.69620377275608,59.23316385145567,0
73.36642485504082,49.27793771381836,0
71.68866472051153,59.99224330319387,0
68.09538702288712,57.50193025088258,0
80.52901390777359,78.89988993306628,0
69.49983779251248,36.365592216682806,0
86.0980927886771,72.39914282819734,0
66.92410775344865,83.88488771224284,0
72.80358959708225,67.73385379642886,0
76.32947439156206,67.1358823847905,0
71.24851076285302,56.18336492317839,0
83.69728667549016,78.95457730215678,0
66.85259427686876,34.63848258524346,0
58.65598164113449,48.58512852241205,0
75.71148965393074,55.120589905646646,0
60.45119523223123,81.1639513760351,0
74.8033699429649,62.27358644490678,0
81.04382703597234,46.11980804414125,0
70.4414016076537,51.26107691815166,0
73.70548563728467,40.04949233872542,0
48.30384486695045,54.34468795938889,0
70.35243924017307,67.17139846990409,0
70.29649468585775,39.959785384959496,0
73.95566808287947,85.79672348326079,0
61.17900546539461,74.05626043208461,0
89.82194958321716,74.94752969106422,0
56.788368745979994,54.411964696020995,0
70.27837883219216,60.10572456273917,0
75.20478013327723,42.17754686088925,0
67.88038318608758,60.79727059091927,0
90.51445580513263,68.57579347213829,0
66.22465286950475,79.76119015180946,0
83.37840510699836,38.859002921212756,0
79.18658152113049,56.6971425647177,0
53.66669713853514,61.06742721221501,0
84.7380918296672,38.101646045704584,0
74.63932986529947,71.59330114729619,0
72.926697379463,47.67756405611416,0
74.74481970610103,60.42410799278926,0
72.76371385682806,57.783770991470554,0
75.03162086034874,52.653061747857315,0
83.05106668871622,60.483546848498186,0
62.70028921762672,51.56601556339441,0
84.17933566931448,51.36256650261092,0
49.729758010481746,52.0488622942185,0
81.9924569083067,77.03693159044548,0
72.14513082523149,83.10065516972386,0
62.7748520177311,64.3774968845276,0
70.15322900869704,72.16151043626991,0
69.32113478436845,34.27683590145256,0
68.88081573427952,58.98484227151973,0
70.96208384887494,33.12711533192065,0
75.49016481076389,44.61330140156023,0
83.3209518585707,37.75877762354139,0
78.33091092458857,76.55934886420042,0
65.4043716278008,68.35959795329441,0
68.3812354949619,59.22316975400497,0
56.661616908234976,43.89210490034438,0
60.82331493337492,58.06112517933791,0
82.06524308585003,59.69851933761753,0
86.48892795744399,59.68545778119642,0
57.99901433970321,28.515690145578386,0
66.47716903828622,46.42750391930752,0
71.93855714199579,59.903291961707716,0
78.60748178345426,77.52223750890064,0
63.30074963013437,17.476578853512272,0
74.49118369902588,57.39407879401236,0
66.35756930385472,60.56789308551168,0
68.28215670701225,77.47692246632711,0
75.66328701220364,72.16695435445352,0
82.22001626347553,71.6903808227068,0
63.07274729125498,49.726323329546396,0
69.51062029134515,26.72001231673269,0
69.1789270915982,60.16053612654405,0
67.06403163995672,79.01700190120674,0
67.755842828937,85.47946687149019,0
89.38267221115217,76.9784873870026,0
69.05831897245342,68.52848784528581,0
74.23105418236841,73.09955674637695,0
82.13245804331834,53.5464166575215,0
62.44744717212423,56.953802656572655,0
72.38586001110441,85.00302333497815,0
70.81106119127394,45.74241107244128,0
69.7136462528221,81.62472525019507,0
89.37862875155665,63.329021924470226,0
59.00752330418637,81.36295846394451,0
51.69437706499466,39.37146723670146,0
56.612472411504726,70.72993429210192,0
73.16336876627216,63.84772054447141,0
90.59356776634141,33.112371178138886,0
87.73925716037421,59.052818077582806,0
77.70555987452227,68.23922174170455,0
73.42024906139186,46.162882228920125,0
48.47062984546102,38.74235280976078,0
67.87124023615456,56.29571594327029,0
67.99154834813172,55.98983607758343,0
69.99673040229693,68.93681874645814,0
73.19049356982148,71.73337944631884,0
64.7922465573274,60.65965141682678,0
55.77975070355965,93.40372145562696,0
81.02437475169678,66.74867351703341,0
61.942279157361995,59.20866914572252,0
71.3340030326025,41.25608167099118,0
90.25644606079209,57.474247995851,0
63.17558876475854,54.16099068861745,0
58.896497107464214,70.54330658980608,0
70.64617018165583,64.98136354282421,0
79.95365383873428,39.69103551212627,0
87.42152731735872,66.24217742927011,0
57.24567099219482,71.80688034890679,0
87.85345947011054,86.40425970438899,0
65.35061220246965,67.51087523071014,0
75.47486913001008,78.57144723587756,0
96.56379224281356,58.76638806169364,0
58.27621942244661,60.32459687097843,0
78.49612298498934,76.54648468648331,0
73.8174174686047,52.42716900074279,0
79.65230497862963,52.81982575928782,0
81.2741800069856,46.785986411301764,0
80.00346986952002,64.72677337774347,0
72.03687591923573,77.71023071760453,0
78.62765087806565,47.13800537017762,0
70.86595468658122,24.861499903989085,0
88.30459796443583,59.1946633656246,0
68.52343814894944,75.27355255765463,0
78.65731577502646,62.50862204974827,0
64.45280722018015,64.7010641924901,0
79.13569907476548,53.04246347137465,0
65.48196776493992,41.07923629787721,0
60.63999323551194,74.3816731821786,0
71.85651424703616,46.741358869376214,0
60.9311268776102,92.32067665635489,0
50.49380360020869,77.44583221941488,0
61.88694758215563,55.67130542004904,0
83.28963618304884,53.69962769970325,0
57.56761332918326,68.39649497730505,0
105.36062503270722,58.85652744364382,0
78.39486047401569,66.81987092306171,0
79.56220773995072,66.9595713355625,0
71.54022126648591,41.06548163077883,0
75.04337504211283,90.61663712024898,0
71.19786674493342,52.170907102157145,0
73.50208728998487,69.19831808753386,0
73.43055816030687,49.05767974027925,0
73.12811317832345,61.59613888000909,0
70.4160444318301,62.922389881191926,0
78.20773048108511,36.81806922036047,0
71.97619303616237,86.65936209611183,0
69.7998725003101,82.08537131139092,0
79.24877716216707,49.21382205977369,0
35.34603187251953,42.51845601120152,0
73.72915314223992,66.83262053869053,0
69.8865145885561,56.31782340812315,0
68.49622081797952,58.77643206389499,0
61.23906850890962,65.33305169580578,0
84.25853721712157,73.2090168362921,0
74.42125319577377,81.31426039344024,0
66.05456135801315,66.23498354414617,0
87.25537825655348,45.03354445479282,0
55.63663735991682,80.71584238451368,0
56.78126683041458,85.82373115588057,0
53.11554094153801,94.6396255161127,0
79.11925825897693,37.80206804557621,0
84.74483621691829,59.41707967006986,0
80.73405035775927,29.522857594723003,0
79.63777651990046,69.22662676379946,0
81.60809999494447,54.957897970918594,0
78.31545672748445,90.13959566842648,0
84.88074888392741,41.87710009778459,0
77.39149060522864,41.897277518416374,0
72.28739336580205,59.29063540657403,0
81.85837663187742,24.07669698160831,0
74.3481246439239,72.93001828948056,0
77.77121981473898,26.04663237994011,0
76.79553468601678,61.121183663750124,0
71.37067524455769,34.099374100366404,0
67.37132376040438,65.84605426355516,0
69.86585099647647,88.40706086278107,0
59.81940443819653,66.8843920470876,0
94.2867301638051,44.00459580466603,1
99.82500805275377,-4.64294489234814,1
108.81144652172385,51.09377246442047,1
121.60745852917847,25.101975059167565,1
75.90808420997749,39.71859096054936,1
125.71666212657367,37.440184519513444,1
45.44240830897808,64.72354055943441,1
94.07584899567799,58.30551358056276,1
95.95286252799298,53.70189238589444,1
123.79522392848249,64.00347701186125,1
107.50819230672995,33.71869537438077,1
78.79864027522716,29.97048128161282,1
82.14252945719204,47.37302099707697,1
119.2008557837264,42.88685531797001,1
108.11831186468544,24.99800059398265,1
92.9156232248257,43.854043905830366,1
101.07119134092119,23.585661173715998,1
123.76693030536663,15.363942523168923,1
100.2486058819107,56.670008175559204,1
108.86134950523208,31.872803998325313,1
161.26679125655397,75.33338800334747,1
77.05110815457472,-2.2633582779108563,1
66.43688033907672,21.265570852661188,1
135.37733964901494,34.232099881673165,1
97.8646585296939,50.22579595067525,1
104.50043191006591,39.48530475611269,1
84.83313579067833,34.95551704756187,1
115.74793142168247,6.791315250317581,1
142.94537174704948,5.250865073018915,1
134.79952733686454,38.80549522628253,1
133.71200688160593,3.1261036687240997,1
68.72361174277829,21.3351651657968,1
80.59965189178577,39.93075976723841,1
38.62926908164113,2.332909492112858,1
96.29339305198377,62.26396132773467,1
130.35102515824042,54.79641666054189,1
121.6139378615875,-0.21542028099870736,1
92.78182040109058,8.383929167931548,1
118.11630687266656,-21.69289347322656,1
87.4255202205145,17.471205973508724,1
116.75352638124048,43.95973674877714,1
128.63991783840603,22.57832139292784,1
69.11282548082148,37.80864447287787,1
121.54050212028808,-0.47699549450285605,1
141.66718407538485,43.71307835195907,1
100.87996112562571,14.057397495663864,1
130.7929053911672,32.612051949501385,1
182.01081879544904,25.126909531008344,1
112.47908729498083,5.388786986628375,1
117.51809435270145,8.990614474714743,1
96.92552568054728,46.42182580205311,1
120.08377839328818,31.96041497816899,1
126.91947566797215,63.131408900333795,1
111.57031917007107,33.854305330323236,1
83.66592883609263,35.97689848919012,1
116.35637922703845,5.177105374515287,1
139.7006882437959,28.542204799046072,1
129.19049515329326,27.95009954778736,1
133.98829705928514,68.72656202777593,1
105.49434018770792,39.576096543279306,1
125.86248378695676,65.12970576897928,1
110.34730815857803,44.782107658188,1
83.20708233044535,13.201806369701698,1
119.0590460581398,27.131610287504802,1
88.5747274777607,28.1183042369662,1
94.9869508308938,16.14945862360737,1
116.4668277635191,22.91411811291938,1
115.74597496109621,26.959582808120317,1
82.7504312042989,57.99765352199057,1
143.76380861150145,-18.9323260243416,1
127.82410416970676,58.92943628787902,1
96.4294985509926,11.474290485798496,1
73.03046208530377,7.094589554895819,1
98.8616101749662,51.66917696819146,1
93.62807450031478,43.45387216950333,1
115.10289042964479,58.656864930726954,1
100.86738821131041,49.67577934916416,1
62.01279291373889,75.18472814817781,1
108.67344363169141,39.698470473376226,1
105.98970221943884,29.94318866579117,1
132.1359566480656,42.40402487381044,1
93.01841508207741,54.3455225085116,1
147.93078844689194,11.845051675927392,1
61.91965543763437,23.67596636595621,1
138.75542837646992,20.548571040285317,1
112.18350051190963,-8.94427348973426,1
135.44157719126625,32.469456615751625,1
114.59759958460972,-16.930402161443325,1
144.66860441177727,36.70415659604528,1
90.2156688135636,33.51652697496815,1
85.47517912726799,10.541830453335242,1
138.95937826025474,66.17896780114079,1
107.12670536061816,3.42533800502082,1
113.98042387826919,50.63731434324897,1
144.17748091160462,44.24185157965464,1
85.34205539244391,-16.97781519510381,1
131.61285830904038,87.75076330316365,1
92.24314528376466,29.97372172518866,1
110.24133805705713,12.222105290218387,1
112.61809021910138,1.9624635150085215,1
64.31800211346884,28.06591032777168,1
85.93599163687396,27.3073549347115,1
143.02743214271766,22.68263305713719,1
137.71624196407853,35.02573804813341,1
110.7526258546047,48.66851029944413,1
110.24058234341875,15.822680036960932,1
101.94235621885275,-10.42496849719237,1
154.00361688966473,25.83259913622697,1
105.5473022293502,-11.955305234920747,1
114.15942442800922,26.27906794122895,1
141.10945180733273,7.918954072198346,1
94.38267827676219,24.46402488162849,1
146.68888787502206,54.856022051350394,1
74.25133862827276,8.662521629215476,1
149.09660579446592,51.62359550715592,1
104.27974841034782,18.307836671231016,1
104.78099709422438,61.30877908435909,1
65.15958485569088,25.79523119485147,1
94.83421433472016,15.463503994579074,1
79.8984048039636,46.50176072179698,1
99.53632788896016,20.39970495507307,1
106.17024394835055,10.312316806293886,1
135.36996407231945,19.848940575820322,1
113.65810664958305,31.613679706682234,1
122.18555020509606,45.95970412003784,1
79.57296537871265,-6.711195257337249,1
87.30314156042733,32.0073041156824,1
158.89808952229845,42.808826423509494,1
97.48481262674017,33.12240439047755,1
148.786409846299,43.36670645900861,1
113.72188993775775,26.313827089327486,1
111.62340687205568,35.256164711667964,1
131.54448769670455,41.91109741810839,1
143.64257079141626,30.4498271056534,1
105.31468992060553,22.276356212341142,1
102.46426609787741,42.09674513486763,1
108.38770754864298,20.243535359114418,1
118.82030665675369,16.63205614382375,1
127.72462528881316,21.564717576656147,1
115.0560526284356,65.44463721713495,1
119.69152061482367,-29.3890731225507,1
145.41516882974855,49.61347777454374,1
121.36954205235705,27.401584492245863,1
125.8055426360093,4.763538352747668,1
70.26426388742627,32.24116738310707,1
47.73660819279325,41.28287057033296,1
125.07609411507194,45.455167273338496,1
111.70281640444853,-25.59044722042134,1
95.57439168126305,57.76760962446015,1
110.63302151868824,19.797571418562388,1
97.45216894172052,40.180000443503985,1
136.8803037685355,53.168392911383954,1
118.04320854928532,5.543075163977398,1
85.70608794943614,52.90765626067293,1
138.25520521157605,27.2967658557508,1
99.82096047608557,-11.876171468402037,1
123.69377997374187,51.341497454371925,1
101.60369041595509,11.963959425720084,1
90.45685067837195,12.231152543953842,1
112.95662915812697,21.696203331521428,1
108.24525940496548,41.720865739720665,1
125.5214191788617,38.69786228548087,1
104.46044200967961,41.95823809741344,1
64.37354377788641,-1.0179297705201975,1
106.97240271100019,12.423642388204337,1
133.1569923904369,26.764604630512906,1
99.1138386882909,62.80713532669024,1
103.4110954331475,21.829042221187944,1
134.27991872225013,62.190081335097766,1
92.60226718165299,32.284171005417626,1
84.05246592696498,16.161161582846898,1
107.83848147541762,29.148529369499755,1
87.7161383682577,20.73987513538815,1
83.12984714758382,36.5928545398595,1
95.9536781650537,53.477013346209866,1
120.63864989594039,45.46618335805159,1
99.83123481217245,52.47715324594324,1
113.31657446181381,-1.5043296871061447,1
147.73158481471498,27.757719489597356,1
103.34882935089828,13.982042495034877,1
116.96141267926113,27.041851788105024,1
98.78447747251529,21.237414856594675,1
88.31825005998304,47.20047822370842,1
88.40581991353366,13.400211600016016,1
100.59864255823146,39.85269436224972,1
128.5980177400254,39.473318907395466,1
170.77295756055167,-11.072454899487346,1
89.96929109651616,68.93477975371195,1
92.4440314790862,16.62599783146637,1
103.88158981841897,-6.073161411993683,1
122.16016950060397,35.47822581727333,1
121.9543604328665,32.08726160795728,1
143.4067257223128,30.496063374843363,1
53.33963468514971,46.396457995091225,1
53.86514446524439,39.92042399195015,1
100.13571765667587,36.1457606813237,1
134.14013671228645,44.80916969099102,1
71.72841676973586,35.953216688506004,1
30.567302488245375,69.48698051883812,1
124.36662992027073,0.5619517666851469,1
117.74574824790243,34.141953131317614,1
91.13870886694853,31.358461920402462,1
78.8128501101386,41.13589142279472,1
88.16394516408967,13.246159342554728,1
120.16956589496647,-11.547586135873185,1
98.13635692461881,32.516074191448666,1
126.51632518851319,43.80513539735368,1
41.572807936729276,63.90628430286974,1
95.0703758206821,-0.022836847684373218,1
76.4112601366619,52.731729986122986,1
96.66184971083646,73.17640572176873,1
96.51713533542026,22.13213340866441,1
119.14028397953562,9.386694692758335,1
69.66980972938862,25.125552364082097,1
117.24086288574601,42.7008197511543,1
121.79165780487,47.23814451267615,1
154.56233293074632,19.19210730862751,1
97.59411334690977,64.4897205536133,1
118.37156836101101,6.697137828922086,1
65.5392997819123,-10.42162427888848,1
52.99225542656592,58.66309137718395,1
130.2562276295001,-10.447463239465755,1
114.5769591761872,24.712133549575853,1
141.6925561305871,93.72330126881764,1
72.6301105463931,35.9638248777254,1
129.6731168272393,11.816404117105108,1
149.9291610829839,21.53654446801563,1
120.03181115482427,30.20208433505845,1
121.74912464515356,32.37484117962052,1
106.59853649604801,48.810263138885794,1
72.27574180568796,14.372990326558522,1
146.60602137775396,70.34400024562609,1
90.42593966496716,29.312813993851318,1
122.24969281160524,40.61532325775489,1
70.14162318467262,23.007424185564346,1
77.75481912814402,52.76941366319844,1
157.38555924080976,17.25178691916717,1
97.50191100882654,38.214032707940966,1
151.35653837140305,8.601786254927951,1
106.08022843913135,19.01032132349947,1
58.51937473162715,45.24502889899997,1
132.81576120906837,21.92915982906061,1
98.49815897804731,11.077318791833672,1
132.06976821325446,25.09050982909425,1
118.4415972417774,45.77183373379753,1
86.14827575110374,15.37674518514675,1
115.35994015304222,23.676482834929484,1
161.590117684693,29.93318973292085,1
124.58903309683595,-13.235211905980005,1
107.23099142283097,5.721859100924361,1
141.5134156981836,27.683847514830077,1
108.78089014824916,14.561842635280703,1
127.08002846857204,54.18516595104804,1
86.9896111699,51.046739185559176,1
107.42618055575915,40.796958462030396,1
132.34094089884877,69.69672927978469,1
93.17885141806907,23.9080165032068,1
151.49411581203097,42.86571523559273,1
101.34616126021204,21.571188327981154,1
91.37089146370123,81.36196215484004,1
125.20410255969651,66.29747799162304,1
102.38346477918805,36.22508127317766,1
134.54810639766873,38.16519745553151,1
99.94845554302167,60.90092904199187,1
100.96973491606234,34.702714937084096,1
123.07007909024509,22.455121327878942,1
114.24883210657276,53.08044205179287,1
63.25949731903571,32.53218457092076,1
77.54227433654991,37.62956459745776,1
129.3720651715049,14.38255601146227,1
96.5915736730801,-10.400065306159991,1
97.75644098597186,36.236567160107235,1
75.23112492718015,49.38104574857633,1
77.06466861440343,28.40251182608826,1
60.42402756978677,58.08860551511036,1
112.60333353568237,12.114395707869855,1
93.96122076837908,12.188441316557736,1
87.17613747447699,22.089032419816135,1
109.66347061872699,35.64224417225654,1
113.07761663542365,44.24228432067949,1
172.6128774087866,15.728384379001147,1
69.84866536030825,60.15467550270582,1
142.2651070918144,72.29177947438602,1
138.17361541152206,22.17219796087449,1
89.82470588000373,59.11464130640769,1
118.11487398994895,10.385827729376164,1
99.78826487564157,48.32812390084527,1
107.55401572433145,47.19719341645968,1
146.06691182886334,45.59848019351334,1
122.07740130401251,23.195029789541664,1
120.4064841241054,-20.4736418699055,1
92.72225111195075,24.596213752674135,1
78.53075196062177,19.740180651187657,1
112.79825800955686,9.317909157079997,1
145.0552187515899,31.45932015125435,1
78.17344970599451,25.411059620445148,1
81.89959161054185,22.296894302209314,1
109.97540923092151,5.972013337059888,1
81.49069514475988,10.101810077178804,1
93.4072384369058,60.16818810497492,1
100.54535072251632,7.843805969527862,1
75.47345633725413,14.658571830071319,1
92.12269656556751,19.631758236980808,1
129.61040468875944,28.977702937163237,1
73.12246725662297,44.68573508460365,1
66.64865249195059,-26.60860443233774,1
97.65934200792337,47.55873814047557,1
133.50755182601912,65.12543128076382,1
107.8353559613576,16.24273139478574,1
107.86991678646994,9.988181863852988,1
119.28400576654727,18.741591356594533,1
68.56249335276252,26.177929749580294,1
118.1747380469683,38.0843465893529,1
113.03593822643226,-7.648882462333017,1
97.83037942253338,14.459177572463267,1
138.9141800269912,62.29359717851326,1
90.94583292273371,8.9074977234437,1
140.28496000339322,55.26936436449627,1
119.70595561103747,42.300035348401416,1
100.35964782210665,-16.146282123511234,1
112.61700474192996,41.266430207128025,1
111.43516500211231,34.56194094905096,1
130.6091010311803,18.331316869537602,1
81.01582780134211,42.629684665597125,1
95.6855209427244,46.5663888081349,1
137.27991397999483,43.82419086204764,1
89.12905137964884,50.72236042651504,1
120.36271505465301,36.725923884818954,1
150.6569958487077,15.810390684279934,1
99.59719586198976,29.8992130816424,1
122.6144434152409,89.48792156440611,1
81.87311765164351,41.4490534495325,1
131.4002661878597,77.97095119413626,1
118.33903550330035,59.12781627706753,1
110.04636242934377,28.6192477430682,1
87.28927271007451,36.42834774169865,1
66.94980136904701,35.880420826521735,1
125.44216727392494,-13.752875723012354,1
60.86109125576382,34.493864875050726,1
104.42558743332,61.08748090111784,1
131.6124569506546,15.204413378104086,1
113.15927621027609,46.70993877219147,1
155.06691977763663,43.58013560562222,1
139.46869945507356,14.01180452305251,1
89.0500963531627,19.440079289808555,1
114.93301647223382,8.1067884046438,1
109.85499862707732,10.470192517421635,1
70.22035852407105,7.740771731248876,1
83.20647508900883,16.235058061096712,1
89.20326801968285,58.06700261807084,1
55.856223646711356,4.890618349832781,1
109.53730236316665,34.54503521438575,1
91.92808232576773,22.05269672363435,1
67.19087669053731,52.49374368380664,1
124.72710847206334,65.55940236797638,1
130.73290814444334,39.46175331827567,1
113.1948325929147,25.036272510787263,1
102.13297711185189,21.724634764693672,1
122.00523094668637,9.714628586632251,1
127.74931267859574,63.59135443527474,1
125.38562836171236,9.901685052318555,1
94.22718775225536,48.02803362154761,1
119.51899066624328,53.50405106645669,1
137.42259170871836,20.77969461003541,1
98.83396549943093,54.667395143646885,1
154.01409872144552,43.158299300412686,1
95.59745924041093,62.66435633734435,1
113.72873243262316,24.6619670342729,1
96.88996617008036,-2.4417142495002944,1
118.93119334908523,9.176605659117044,1
67.9186111301666,32.01064998254736,1
95.37033013416256,35.81862098702959,1
85.38684984041825,23.409040569443007,1
108.61915349437578,-3.897491658929784,1
130.63779807125644,29.328188370466304,1
126.45882806016526,71.02437362326145,1
51.57450419207143,42.55434728567196,1
151.92366543037377,35.42872326801685,1
119.6577304202693,45.759194075834756,1
94.45116337727195,37.38333891511903,1
113.54177178744204,63.990002845391906,1
126.27707697898728,27.02129327922964,1
89.91410654463499,30.592028445308234,1
113.14248086661753,12.10943131719455,1
92.83785827885627,16.93476832218628,1
99.51001212629434,33.64781421118836,1
91.19939754129143,25.065736984227865,1
67.14916503348432,41.47410701045383,1
110.91317027420223,47.392824114669224,1
124.14438243403806,53.77305406892535,1
129.0149503122193,50.828989273257136,1
141.50934768274544,37.21097183090773,1
124.78587473962497,5.800893482651154,1
92.80496739621438,19.824902958971258,1
127.51254855764888,29.821698380744582,1
75.26541861640487,-10.264588420765424,1
96.40600988145593,57.95875211173192,1
85.06787795350941,29.199268838738725,1
130.3638640257956,32.487086325518504,1
131.06382716873674,59.706124889439174,1
125.96791093522195,20.54079613845125,1
140.24794801477537,40.54285361722255,1
87.01684710724201,34.640974057641145,1
122.13195136432466,25.016109727206047,1
95.50477827768674,13.042279518284722,1
131.69119877228633,66.61450918545904,1
111.42282129303821,21.827871273771898,1
96.2121114139753,44.41327358304476,1
119.34102028154331,-20.10234010253405,1
122.57198841596345,53.68330751748561,1
101.24084810288342,41.90824343178487,1
104.87233833108276,25.843929350951708,1
84.74420054826925,18.784537983463988,1
50.56805977009339,32.7870843446022,1
122.5718305310505,73.03154391944452,1
124.45314503643762,-7.697197055797126,1
113.85452125827604,48.96192377276818,1
62.12629529899359,12.879593027595432,1
107.64916563079957,20.096259929915448,1
53.69044334171905,25.45887080616078,1
139.46818228343423,23.024911076962024,1
75.14484640547104,28.147864837680622,1
135.27860331347128,7.012147209910679,1
137.96869857913697,51.53515934954462,1
85.8821188050644,-2.059872235794105,1
78.64277166870282,32.92089031925317,1
115.17941929373873,22.247697756110334,1
89.31712837142413,14.12318261413957,1
111.36484058512727,41.13097395346369,1
96.56364951123078,3.11566290474934,1
72.21765927741286,33.47839985417107,1
61.928380931196685,9.815635585779354,1
107.61699784781995,48.814681694389954,1
97.59901999744915,10.867453387158227,1
92.28844408403972,16.132957442972213,1
126.15534040803917,34.52752617074077,1
140.8824488414446,30.03263533201555,1
102.12278238130017,20.99393829300798,1
102.63733173039164,-2.629305722544161,1
125.86842685800669,35.55405630945996,1
77.54949476021223,65.92209542540235,1
112.34464484785431,79.8307222137249,1
120.65115126070224,31.279607819160695,1
119.80722872735055,36.01360701584994,1
57.31158094983479,-2.5244101327265325,1
100.77646006426913,66.16641280845164,1
84.08340080893711,43.604851984164824,1
106.53027979801122,19.64568106559683,1
123.61825380342346,53.92657985212362,1
146.86593638969023,25.815031843218296,1
96.64789680655204,20.648648404876727,1
104.60591737433009,43.347283270703294,1
141.4874338497605,14.898105670648356,1
114.76445880474026,46.36213917553805,1
139.56890819174043,7.333561297591649,1
114.70526750571747,13.50700144816,1
85.44578264006952,4.697858991538151,1
75.13105298328915,35.33639434109459,1
62.24642626125601,18.79607253409824,1
126.30969747529011,5.521816368009086,1
132.02979057153556,14.274899061516077,1
167.15520654343402,26.465897315787988,1
126.24929373884486,2.5795887180077948,1
138.261640611586,2.6317516225909587,1
96.79060535716357,75.69340578501469,1
79.64631377800742,6.886199488734068,1
129.8018313031079,22.21153831737312,1
122.5511552367894,18.12857914644002,1
120.31718915250372,14.296418965085085,1
123.52183242491124,46.7778256731159,1
125.47220645432286,46.363732898573296,1
136.86232595587154,24.82311177147194,1
143.9614527867007,-2.2699451308520295,1
124.38173906880007,51.77910728819569,1
132.90052827245688,31.873617579541378,1
129.73272366379726,77.54279357636992,1
97.36681095017425,-24.792798273254817,1
126.88660004005807,32.90252544921927,1
77.80752726561178,70.43352966824166,1
127.45627516956786,19.854216525040417,1
78.95266626023823,29.737741468277896,1
116.47409372344106,31.57657047850521,1
84.26935795781141,19.59332192338406,1
129.12001963364355,21.148201836453545,1
103.84066776508585,29.3408535309458,1
69.45173580409771,14.069762796294507,1
121.98327690207681,52.81776202257861,1
102.31923838656283,43.95000583341448,1
131.97588584592998,29.87237134660172,1
114.71391018900124,46.5151704216202,1
123.38850162108659,15.600211617497655,1
86.67806390546542,9.076256339796615,1
89.81912717294867,19.85817028716287,1
91.36112979295113,25.08217327441102,1
131.9500890131598,6.092901173423002,1
149.22094282562418,22.460211678506177,1
94.46701166483456,16.781736456836654,1
140.6504862069349,76.60533496266207,1
54.8350095846722,-24.397984861248013,1
74.35670035298642,28.58602113150985,1
88.58421634336699,70.71870384998807,1
71.09753553330619,34.036004595719405,1
66.61797064065618,52.76258592076858,1
115.42789411236916,36.552837717184474,1
103.9558024471037,14.036070226498111,1
125.33609661048055,-8.372578315071905,1
127.23661280192019,35.428443845240785,1
114.42433136717486,12.51446936464966,1
118.81600475353312,15.385220353298337,1
111.02231576759247,25.581889002369078,1
76.42314226271326,67.17245360368099,1
137.0329426163104,87.20871500783645,1
93.50110360088861,39.77681154006213,1
90.80097862893655,23.320455688776256,1
104.7658711447473,1.3251312372700035,1
86.88509524497191,38.47214066087078,1
101.99297618754149,66.01643270005714,1
129.1360489504026,28.536349765585598,1
123.15077813294594,-14.39325560870352,1
87.11121780761621,44.2486954874019,1
97.82335562935783,50.309743805886846,1
134.23402781763394,1.8853716676634003,1
117.66002442575005,29.236752545109127,1
159.11287204838194,47.502099418971255,1
135.64245952497848,18.302019534003875,1
141.8741686329779,21.461629029153073,1
69.94731194926003,50.09281682914531,1
135.76256159773578,26.945304151984317,1
112.43256187567138,2.1154789174644213,1
96.32796355838211,-9.259317658839608,1
114.20197657063855,57.9882627801188,1
130.84388181721434,46.378550974861255,1
123.87121183184411,30.11531680964718,1
93.47861728249144,26.36850291561511,1
125.04569052853644,13.997678598043544,1
86.39335100350725,8.458614164537149,1
118.93316924839088,25.55073673016369,1
104.03807818429065,-7.4266564043240395,1
98.92734969940346,17.58267117193672,1
125.48911752144214,21.814287483199447,1
79.69963563435186,46.6811398356519,1
155.00721551175207,25.854639536938954,1
62.85443449743166,54.655507646255735,1
93.72557139722484,56.55934761477027,1
116.00132897320123,43.46527340545223,1
120.81703506338312,33.436779607488376,1
106.34418526611047,30.45547176801362,1
109.40369009925924,11.083366188359083,1
118.68226945136618,54.647164452341805,1
110.01659818026451,58.40245095635945,1
147.3699700204766,37.03943178952802,1
123.02949857149657,63.04807593311218,1
134.43924760221014,-2.9747084272886926,1
88.87380182866748,15.336592454755863,1
105.84161454923647,41.4223490391853,1
95.01236334546662,38.221016323404186,1
84.90029940481904,58.24018032650811,1
118.96556134123296,29.569710053674164,1
90.95062487283862,15.237674665392047,1
119.12899966495625,19.928033246182707,1
82.8074431953745,7.627933120543107,1
151.8106293607914,17.052414013676913,1
85.50535670858649,49.68440344715677,1
115.06550475627809,59.57127894245997,1
124.2826008906001,35.26494603837193,1
93.55988618066661,-2.4193904499279877,1
133.97834123889552,29.991373808614796,1
77.52055965323315,3.204979925684439,1
137.94308012060125,46.62291978135812,1
107.9902702355261,10.266972000653706,1
89.73892248324371,18.589178603882303,1
103.85613717162279,27.9508000492346,1
131.81716875172012,16.26822704621527,1
87.09474457830889,54.11105781246886,1
95.0611226173415,20.045478445962125,1
98.90065355401376,-1.8923644806155484,1
88.37185863316256,-15.51458545345692,1
155.2697163760423,30.881872048812497,1
89.6081677269361,13.44116808661361,1
125.08048930104668,0.5289965221943355,1
116.97722855013104,60.79557717263205,1
83.4301492884589,45.48617493616916,1
109.36786272159107,30.088353883397197,1
137.6639706462539,58.36084843073665,1
101.79724630169696,41.305045188089444,1
140.12763793475423,23.52364356840598,1
142.63710725641187,5.154811067514341,1
134.32543874379024,47.41426169889687,1
90.47556701638504,38.50246696106105,1
85.53088386412351,38.43876789507891,1
88.84529557701292,18.585913636590053,1
121.94006116033285,41.99885731767973,1
119.530329813319,16.343354802886264,1
70.55826241971714,29.602940677696182,1
117.13404990134462,47.57817464988656,1
109.96916778493971,8.838367271408206,1
103.16146261711927,-4.485103595067071,1
146.05006738356428,6.1410627807134475,1
124.46280422740531,43.88956442393181,1
144.9664790019034,38.84253560447234,1
110.86178217607475,27.43304453131229,1
132.8220925795013,18.744651156834426,1
149.04307152030782,33.426421778526866,1
141.05801629219349,12.795178658971587,1
86.9883263241423,22.97988759285886,1
105.4840032629537,14.560127069711656,1
102.82730069220636,12.3627306385377,1
126.2075346231941,18.45982622510726,1
116.90357683609406,14.671342252924363,1
90.57802726873234,30.14748696478331,1
112.78880729229202,29.501959552899574,1
67.84585710260012,-47.82965499003055,1
138.40568523372892,17.43664577417803,1
104.97657714496646,32.239169069677935,1
111.77364414073574,60.358034566179995,1
104.70370480359868,4.314470539156194,1
147.03028331338228,34.19928459954824,1
41.86614530509338,64.59575198221248,1
111.58658288916507,6.845617230418218,1
108.56598699156915,51.59506887960678,1
96.24169963523605,10.377875475836259,1
153.01321801833885,21.1684825538118,1
84.23919969799198,21.682373088024725,1
129.0720699337641,22.79365001677494,1
107.2266662323766,74.68785332550796,1
143.68317915122563,46.87232934123341,1
92.71158661164424,59.45736106496768,1
89.99475883857221,54.293084688725614,1
138.50053810663567,1.3938436507149348,1
113.46521309342555,36.059842937983724,1
81.02291631618745,46.412576527959985,1
96.00353733098024,24.02572730687202,1
118.93034418134059,52.95024127555133,1
126.11712448800012,39.846389562654494,1
93.13896558242243,66.02501906460449,1
44.07839970594287,23.195272333871145,1
128.26016069058602,10.766813623926053,1
83.76417150710338,18.269344524820138,1
62.298524805276074,55.640467772645,1
37.399139237583434,-14.832790428704058,1
123.09870566976002,-6.168702860596733,1
112.21024240079099,30.079813244780684,1
103.17923315952532,23.479822390433338,1
149.96958127242524,37.26585040639532,1
127.48006928787592,50.00558613658703,1
158.46905870756564,18.383760697877612,1
81.16905589601596,-6.490509234192739,1
106.85375635363043,71.20559916325001,1
60.6065196432003,16.2862592406142,1
111.19331787332072,10.373449547452,1
110.5815297719868,49.352395176557366,1
118.83428297706564,27.549462863618395,1
118.68529712768496,34.88462474109554,1
127.49576430996048,32.96414934710404,1
128.38943081910062,59.33558148604044,1
171.9471332058152,25.154345002406984,1
108.84100948399997,61.81538986901897,1
89.73108724331654,-7.682873816713537,1
118.51817571197013,42.360862784040144,1
93.02497077416321,17.980271410601475,1
145.04873204150078,55.56154898347055,1
102.64404177770757,25.466136178059216,1
91.34900503017754,11.553111964277297,1
96.55190809252746,46.091931024948785,1
126.12726619344636,43.13642524417173,1
102.87979857110454,50.88826307312101,1
94.64206200998277,15.352492474537005,1
150.01389368708539,26.98685335772313,1
91.10692758521611,30.54243615595836,1
102.77754878435601,30.46411503347359,1
125.74087981971925,39.026350237545564,1
69.87438044046064,-5.319107099344711,1
120.45336633596372,38.585708366255496,1
82.7603446139426,27.036901037728505,1
122.64333946720076,21.671546729585366,1
87.71611022537304,12.120449524870459,1
130.55725570905688,25.078538960254136,1
140.11351312838664,-40.388347481479514,1
136.72954843803103,11.297031556875467,1
117.29056423486507,11.545709400689933,1
106.6108823300122,43.12041323878733,1
96.36996428391318,12.262359992925434,1
150.21362086839008,32.24267104523577,1
84.62647131514831,53.29090974414107,1
79.60544332086005,55.50088659747518,1
134.5687216609862,51.35135537294907,1
77.7944008098566,17.15840845400001,1
85.5475229142201,36.23860274464306,1
79.77126824379621,14.920630904715864,1
97.46095068577823,22.10226072439207,1
105.90706904533418,43.42959014994598,1
116.72440157559397,17.779699600187982,1
132.01705520747484,65.67496649082328,1
123.32669555542954,23.698041854918497,1
101.81128932856986,45.90274212572611,1
110.58848019028562,55.524516574723854,1
129.8702613282079,45.80520046045431,1
141.14730246265614,1.2859818603361275,1
106.22540788362379,35.5730853435977,1
95.6525127931728,39.30027714402688,1
84.25840667234654,46.925686939630005,1
76.3975627742104,8.26628039986382,1
121.61667568523468,23.20108831713386,1
120.60365149777817,54.57519310049773,1
126.98746881696057,20.86450858251124,1
111.47805800139639,27.607866358681257,1
142.06539842144036,63.18057998478926,1
91.23095236562457,22.89929045994474,1
150.30232193661956,16.213878232999512,1
112.947948810705,15.431621749395969,1
93.45621207418141,43.94157633855594,1
129.15841406059823,6.76848253911489,1
119.61861981852773,31.255197895098746,1
123.26010342717409,31.50462124297424,1
112.82892654028608,54.35090828021287,1
109.5090324479171,45.49771517570626,1
169.14139048060701,21.523461094069233,1
132.36950946258887,52.8422431220798,1
137.7611468716035,23.597469453304683,1
108.08730935374598,8.721641089026717,1
128.37881213336374,20.929818678964928,1
121.88556999600446,66.80040677203118,1
105.84775975179835,28.909120535760074,1
102.15232791555077,20.65749016879921,1
111.41588580124164,62.794567936669964,1
35.71587110569472,9.865196570789283,1
119.33867459054946,7.220283370612606,1
96.2599377233126,1.4385232956815193,1
150.06470909538,37.65989254113667,1
112.52299702478132,32.567975055946604,1
71.48697739191559,53.130180497629944,1
111.60591964739636,23.572570253214476,1
76.56047643551824,22.898218502618263,1
132.03691838734412,36.59864342926328,1
115.25110868527865,34.07481689335949,1
133.02161489173375,-0.3172278313032715,1
86.37941971144659,92.12522061489555,1
107.70035224642523,42.041254619243524,1
87.24492296005033,33.58689065891368,1
132.23921799123434,38.21065565732128,1
115.22576728526386,54.299282426592534,1
129.91619002911543,29.821669185719767,1
116.00668715963069,12.657168695589336,1
118.96325995827833,36.1331753874279,1
151.6419624178641,43.97953544527361,1
102.79792317684428,8.614989536170208,1
123.32902911498677,67.64988301485639,1
78.86539157550429,22.084726741006108,1
89.02352900892032,51.7093632343025,1
110.30460567236865,60.2728918094082,1
130.43313664445841,31.03074853858107,1
114.55117066898563,35.461747964473496,1
98.19425387168485,55.65419401309248,1
100.92851482482952,19.038072616004975,1
87.92758019699025,26.565015212442763,1
115.37893369650507,23.916421952878558,1
74.67840297770117,11.765315032068653,1
137.89981951915638,76.3473801057905,1
96.29845180044175,-5.745209056725598,1
126.70238167651313,3.760954298845164,1
84.05044762714617,53.41485834870058,1
133.5298078303566,44.31177535746432,1
123.86489139171238,13.11032170862645,1
119.98871609711219,49.60883003935403,1
86.05655808736635,63.90145408179263,1
119.33545121712542,25.78753509890926,1
80.49550536286159,83.82103364563761,1
104.63197341930959,-4.16570060990059,1
134.51829514990754,37.215824304027535,1
130.49374751162864,55.32173064788143,1
116.86927453118649,57.1102397216935,1
88.86025180798823,26.075018488022053,1
129.6459710015717,16.220256961150007,1
114.09988256312852,39.034246777288246,1
51.22306615483424,40.24652873817514,1
131.1598808758106,46.3674962600787,1
103.96831076157898,53.425482774493425,1
146.40531948116157,8.768050591291578,1
68.70343486721379,23.7887590882482,1
30.146662708422863,10.138509849447182,1
122.681576344381,22.319116949988768,1
110.46975224890261,46.443242729578394,1
69.73210889792296,25.22091300949739,1
82.13367912043971,87.83067799646864,1
177.0364272670532,31.94112246130955,1
107.08943944935211,32.029053132440445,1
129.26425903883117,33.55006814464179,1
83.5617249763686,18.85392854107735,1
52.86029983001309,22.974177766956004,1
110.62022250454616,44.17655971947368,1
105.60459958381236,29.335950739095484,1
108.74372189591213,16.10936306441534,1
115.54721708240668,7.85855825305573,1
114.89548114040694,19.221355398186965,1
118.76326524400228,42.113755756965446,1
78.52224415057546,44.64461128550256,1
117.34127711700334,-0.5849428068812288,1
58.097506787386536,33.086494785094516,1
47.457438041447894,32.66320702872546,1
136.5146074087856,-10.204041180083246,1
130.64931674860324,19.171878925727476,1
103.48757867908249,16.678381387681828,1
73.97436593921367,12.339050547770004,1
92.780264203711,34.7996355356205,1
98.62956604712683,23.498263763050222,1
61.327140629291364,13.806822633538884,1
90.47249553053462,37.99126789287896,1
124.70286130712077,59.40650955254497,1
143.74057790228653,62.838596893817446,1
100.62771149654105,-6.683402603875033,1
136.05980715053244,45.806745956960846,1
60.63303463685469,32.07915912630737,1
127.3384960214471,31.07442434914587,1
93.53564225053765,24.531412368844375,1
120.45435505026299,34.81438982877583,1
100.73407192176806,34.66724150052029,1
143.49223586016603,16.023667798269244,1
90.87680789234732,6.93230998117583,1
120.04840075149188,23.536095792943115,1
109.33000847156922,26.15087247817006,1
113.20030757582896,40.640729670843726,1
101.78975139379729,34.29882446855994,1
89.82652247938802,13.43418742187043,1
112.85891713568837,31.291221653817615,1
105.7057236653107,54.73367287721239,1
118.4390754386087,56.75243802490391,1
112.9289067737824,26.053669498158342,1
122.6102728521119,29.228214476856504,1
135.38352198107702,38.260599493629826,1
78.2337048729498,6.2025263001782776,1
136.41532677307953,19.205919058221387,1
76.9855339465842,43.85216641913203,1
123.88997003513765,42.34948056301334,1
132.3548641848046,18.43237595857109,1
64.69898594108163,36.18959798639317,1
106.92711156536252,14.906052465698027,1
93.21301431199669,46.29505646397143,1
88.034354608497,29.838186763107757,1
145.74452868425848,28.130186141652153,1
95.44952055872838,21.86888313876711,1
85.62506524873442,29.751048198857603,1
106.05632607205554,19.053745680133172,1
128.54766068288959,40.24036464194152,1
105.54948502079603,28.785577193486763,1
149.94534307897,51.640438412915145,1
123.45740983191766,63.68801001539894,1
64.61598114521561,9.066425825681602,1
90.91140792180309,27.64389450037,1
88.08788281839898,18.294754993603135,1
116.38359817310788,16.019000674472757,1
50.325222497914545,65.96843399316494,1
182.5057506664107,19.602873425119057,1
119.36475510259208,36.09752945062311,1
111.41908994914449,36.805737439362126,1
133.69428835941613,17.99300597853153,1
159.5331520847237,21.883173094305672,1
135.3607246035932,-4.230415041902695,1
134.8354289266013,15.002198845873144,1
113.31969052497894,-22.70728499095577,1
99.46157348000939,43.60657402782809,1
106.30489730902077,67.79330935966291,1
86.83041651688909,31.735936969937832,1
95.49277963159494,-2.066750460700625,1
68.9632938652018,15.043152186206898,1
107.15058778477423,14.772637956164182,1
69.34018285053324,9.074360347559734,1
116.4082891938593,39.68964421137779,1
109.86497751512458,45.20452811636599,1
116.14599491991106,0.6480556781479843,1
91.29410846933538,45.535702697907176,1
187.90837228171088,57.13915546683085,1
144.5716859219092,69.50406584396389,1
80.04480091885723,92.71214410354315,1
116.18342827226836,19.90738169165959,1
88.43378255699993,73.8443855828016,1
78.04900807176979,18.74490176045532,1
65.42685729247886,16.635260506829642,1
124.89308981820783,38.84308658946432,1
97.10378167193664,10.107000797367107,1
138.4134020567407,33.070420778929446,1
136.37850517556825,4.250242258539517,1
133.68226354169568,25.64938916636465,1
83.55677838922108,57.599736719334054,1
122.73621735526581,31.077152805817462,1
126.4889454300165,34.52488790037697,1
97.03180455664076,40.47344867750369,1
92.55028707971935,53.691931452985045,1
150.29627518282555,0.21932120483315565,1
116.29124922105815,30.493867703927567,1
122.70386710363337,32.35888465002091,1
94.35815463490977,22.31034765183515,1
77.36403029354324,45.80319431072507,1
89.11051022259412,4.982462988512394,1
103.04447025115643,13.11017562658742,1
81.65216887275639,-23.684933648274207,1
114.72389372558466,18.876199545015297,1
67.57603030611354,60.570622084655,1
81.06807334342494,32.560846810673,1
120.52946408310873,-0.2891462055830072,1
129.02217595609523,18.7822486737239,1
96.94332009521142,-2.8379747142755978,1
84.0557529783695,5.5329046977463445,1
91.71582659625906,32.617245451632094,1
103.21211050671367,2.0762726615248344,1
117.9716920525564,54.424570714207874,1
124.35859110184575,29.235671049756988,1
97.26515436235455,34.169826616842876,1
75.09898627600637,25.502612596346303,1
119.93882468482332,48.97864977661244,1
89.62294105917866,50.05426774631518,1
97.87060787358925,27.99250393891291,1
139.59818635271415,37.02423386608115,1
139.38480399057772,24.601326814141295,1
128.1623264463386,40.73067251074426,1
76.80910135339836,19.891991621433696,1
117.05011042884148,34.60475079818957,1
137.05351898500973,34.406866854127045,1
99.31072403865626,21.786438991524754,1
139.6174999110039,16.63946920655525,1
136.89379230055278,43.60108335269937,1
145.9153344759592,46.882919480252085,1
119.65727829102954,53.564384135583246,1
122.08642010413213,9.763872408428877,1
132.46321795757459,52.568291042131904,1
123.409139529716,17.504027068131595,1
97.2778408929239,41.08563225241294,1
105.5197940938092,11.572266193046177,1
117.82948582979853,28.296336867902816,1
70.34259646979304,46.7552700381929,1
95.27014391224529,-2.0855777434327827,1
133.81631603406666,36.39704656975094,1
52.093116617399716,56.45059356141325,1
153.07784854986372,31.046344274889897,1
138.01500080613113,57.29043386155141,1
104.17432709473064,28.634099731171858,1
116.96060541828206,42.63413764926656,1
114.9050150945604,-6.9329570870044215,1
144.35470497812167,81.18411072586149,1
124.47590801209256,65.14767274924719,1
81.61132112672863,26.13329307730227,1
125.14885279543618,-5.317360344232436,1
106.81952617826133,31.395304567723645,1
107.74633370081038,-1.3355630249229504,1
98.17193754036447,45.62947372892991,1
147.7741650818265,46.03002411970545,1
140.16200558943413,5.436608621364119,1
95.60875828021916,53.66802081160661,1
71.76389768638307,43.956775053697335,1
110.27505222266667,46.03130939894696,1
122.02020855337024,31.601352550155156,1
119.27460915001069,7.39433332355291,1
133.69271664252733,51.81575781064372,1
140.33664306956413,22.995009767689,1
128.1164409426972,4.778703035822417,1
123.29581717909059,55.24090645158201,1
70.29367315506677,74.0487219137032,1
102.01259270708906,36.15736592269461,1
140.44601371714387,62.7966247955617,1
113.84969035525964,35.81255606492716,1
116.22083797002315,14.695607308820636,1
107.48365296413164,23.532469469012753,1
89.47960626211984,59.556520110490546,1
102.22663135462277,8.308765484212143,1
125.7194240437719,48.18173233494348,1
86.32351887222372,20.637573614527888,1
100.9833559646952,15.797930233704449,1
88.90843207081038,44.33999509354937,1
133.71329151558936,21.461855636756514,1
103.95770148869586,15.883657660738152,1
147.52426902217107,47.34872907887801,1
147.2833249139091,62.52604981653963,1
112.1358535749092,38.06443789440918,1
83.64697772302806,19.037300937653733,1
59.0102584007356,27.238547993465794,1
78.93143256176972,30.85552820029784,1
79.6075604276627,37.06935654844107,1
148.39182714060865,20.333165461381995,1
107.14971666958975,38.52275320471055,1
122.3640759798063,37.66644256869569,1
50.09698082177433,1.0401216167998255,1
73.64376437067833,15.693057046654307,1
131.81846267973233,26.376165780629883,1
112.64787687630671,29.945721052971994,1
110.27295662705995,64.87092843208359,1
128.19373626347968,40.2362925788954,1
141.38181397123816,18.848773260591976,1
100.33242571368929,39.93918559360971,1
104.43531170686174,23.18075546251856,1
112.50177658531818,32.9141922226042,1
172.07861923119393,42.56816501127035,1
56.30465289863242,58.89576303231794,1
124.13177916638453,34.63602903589931,1
113.6308264150891,60.63082991662369,1
112.64500729162305,49.737317731360775,1
99.750045617723,9.307317581326464,1
106.05443276276131,79.12186382999853,1
127.39471943607343,32.623346481776636,1
185.1859383374955,17.22378671841303,1
137.91534526274737,57.31173813765763,1
82.643467565211,76.71263123613893,1
99.4646897980421,30.94867067572264,1
101.30184054970363,16.020206314403342,1
57.053906844823786,30.009282756329387,1
97.14825435523329,41.342826091327346,1
127.57983437805248,59.30490828783592,1
73.71087184965825,40.03918924036786,1
132.13410742016904,23.42922854128708,1
120.44505721172627,55.048154203683865,1
94.89207360895492,21.59119699553313,1
104.7481701821631,57.459331886081024,1
155.35017616339056,28.744462185620552,1
123.34990642434987,46.739766221828575,1
103.95998007008643,35.99692478434026,1
113.68964410458106,26.209202323989206,1
108.62543612296393,21.509835351961655,1
90.65135101608162,54.840681001961194,1
48.67099264816548,11.983926211323917,1
166.42996503241298,5.98788140234354,1
112.17660240668475,72.34613272681797,1
118.68513295273144,43.12912332453107,1
107.75629769514408,-17.873133381532362,1
96.6867944052342,29.27367926360685,1
104.45423880640114,-8.786512232894626,1
81.73539983930534,11.960056159835233,1
167.59596532160376,-28.237051395634378,1
84.4461238742317,28.661664905950687,1
88.22704219334256,8.62358455648525,1
98.81128328904981,29.386092967488366,1
139.26703819120712,-3.661815052956657,1
112.02254462439913,26.858184452501657,1
81.64709875527481,25.931899482040492,1
138.49552877830087,51.331601020701434,1
129.10670999939032,63.08257892682351,1
129.64189882170928,38.68842013647945,1
138.24309472461943,28.280760757159012,1
174.13089411630838,67.93852027414496,1
173.9411708078042,-7.220048997461815,1
89.68524536888533,4.825320634124929,1
154.10653608057527,32.96817567759758,1
126.27180228687887,72.89036893790471,1
117.99572873858375,29.556274605992915,1
65.26527864869175,14.909672662467612,1
114.42987967447135,-5.441188570969186,1
84.80391596265119,55.38063635775121,1
123.99582020905417,47.9451787155975,1
144.4169203782677,36.47043739575396,1
64.12165734949441,13.921255640842785,1
111.60972961981209,11.248862269914483,1
137.81798384662716,3.30774633453597,1
103.14040341413896,29.823695116180435,1
129.63633549410437,9.28651205912077,1
126.67817147768486,6.104339636951353,1
119.73433642952604,28.324881936971575,1
114.05192188452739,22.33961949491402,1
75.09576996840612,21.528787479528827,1
81.86334254273297,45.15467755627784,1
125.86851952306336,29.637112290857676,1
105.06074867216041,17.92749217298522,1
105.77177521977111,39.69511018939089,1
101.48939545024338,10.84866791844792,1
104.99142976274136,32.8023285176882,1
147.02505575692626,29.845400249241493,1
103.94123530191712,-3.1452138526674993,1
82.22406618585886,54.14748678126146,1
128.9217656199992,17.29460488614814,1
113.26836140564504,35.72531301286199,1
122.77714306625975,57.25304283793278,1
152.8448833148675,51.358682840576186,1
104.5226909889794,31.34428142176749,1
114.4855667140823,21.873121520753728,1
81.93658423356769,55.001857421219114,1
106.79075386747922,41.62529520372023,1
128.7302768021369,19.482595668521135,1
73.41664506011915,10.082062070194958,1
115.05605190917244,-14.743598818172218,1
109.33878461010951,31.899863994385615,1
113.03787769600714,24.326353215996207,1
145.20390925385936,56.71308662024234,1
123.4606058983518,30.440930611882184,1
149.62531720709208,57.18073200035918,1
90.30809672926284,16.71525592588749,1
111.54279403595444,43.70900872775396,1
109.57034392933208,17.216553315288856,1
79.52971213429308,46.83041892608615,1
133.28094193843646,2.9684721158564695,1
166.00680316277507,33.68116994432294,1
115.61622184116493,-6.309317806514622,1
120.24891011843323,24.110668994984703,1
108.0993533142586,38.875344437933556,1
101.87326914647376,20.83889832031085,1
62.22411689954288,13.626245568551498,1
93.12330520886762,43.54377937384101,1
77.45765459992377,25.49663484047004,1
146.91908635687386,16.864104600740493,1
113.29967649943437,29.176929842375863,1
104.53761197587687,89.8645541293106,1
140.02076567909904,55.93368359227999,1
78.5601127425123,47.59602463791259,1
91.324028012267,35.708691551903904,1
111.8985855061865,35.19354157292495,1
137.03866725733712,-22.454184671272174,1
115.26905238633391,12.793692866663573,1
116.76231045635816,27.113310066821253,1
104.82062382378169,-10.564719423316593,1
121.79756674415398,11.625018275838261,1
104.39807700563877,-3.340113470797986,1
74.99275895912368,25.56621283020773,1
115.24472412302877,41.92550663419062,1
80.42359125108227,50.75482994008075,1
107.08777320435938,32.8525506382167,1
104.3380295681717,11.337242568542333,1
175.1226716562136,-9.669562729666122,1
113.36309138387612,-3.334473908598527,1
74.06280048185613,11.605065736074135,1
120.0436382025769,16.3102309431381,1
119.96139933814823,29.25122891723005,1
160.55657640061253,-0.11352642737895557,1
94.95685980103248,38.99639778387711,1
62.16674867484528,33.96766824753329,1
132.83516901451506,15.158301653252927,1
77.05884515978452,56.25192376830222,1
93.83950489111672,5.598572442210278,1
98.94839147655158,34.12511655073264,1
108.13567545207233,33.7261783500383,1
128.9778505030983,31.878803883642746,1
80.5558265284433,51.581280061507975,1
108.42237595844999,45.72432333483251,1
107.1707513071904,6.352834958190657,1
107.08121151597882,27.079926491789237,1
117.15101212495772,39.99008011358925,1
